Data from Absorbance_18-35-03-674.txt Node
Date: Tue Nov 15 18:35:03 MSK 2022
User: vat
Spectrometer: MAYP114033
Trigger mode: 0
Integration Time (sec): 8,000000E-3
Scans to average: 10
Electric dark correction enabled: true
Nonlinearity correction enabled: false
Boxcar width: 3
XAxis mode: Wavelengths
Number of Pixels in Spectrum: 2068
>>>>>Begin Spectral Data<<<<<
199,4	-0
199,9	1,361
200,4	0,261
200,8	0,168
201,3	0,104
201,8	0,104
202,2	0,114
202,7	0,108
203,2	0,077
203,6	0,075
204,1	0,078
204,6	0,085
205	0,085
205,5	0,04
206	0,013
206,4	0,01
206,9	0,03
207,4	-0,005
207,8	-0,005
208,3	-0,011
208,8	0,028
209,2	0,052
209,7	0,056
210,2	0,052
210,6	0,088
211,1	0,102
211,5	0,084
212	0,061
212,5	0,058
212,9	0,051
213,4	0,017
213,9	0,008
214,3	-0,019
214,8	-0,007
215,3	0,023
215,7	0,008
216,2	-0,035
216,7	-0,021
217,1	-0,037
217,6	-0,021
218,1	-0,025
218,5	-0,022
219	-0,005
219,5	0,027
219,9	0,036
220,4	0,034
220,9	0,029
221,3	0,054
221,8	0,043
222,3	0,021
222,7	0,033
223,2	0,025
223,6	0,05
224,1	0,056
224,6	0,032
225	0,042
225,5	0,032
226	0,03
226,4	0,041
226,9	0,03
227,4	0,037
227,8	0,04
228,3	0,023
228,8	0,056
229,2	0,045
229,7	0,03
230,2	0,027
230,6	0,014
231,1	0,025
231,5	0,04
232	0,028
232,5	0,074
232,9	0,071
233,4	0,06
233,9	0,052
234,3	0,033
234,8	0,032
235,3	0,026
235,7	-0,009
236,2	0,027
236,7	0,042
237,1	0,046
237,6	0,047
238,1	0,043
238,5	0,06
239	0,066
239,4	0,045
239,9	0,032
240,4	0,038
240,8	0,035
241,3	0,021
241,8	0,004
242,2	0,003
242,7	-0,007
243,2	-0,006
243,6	-0,016
244,1	0,003
244,6	0,021
245	0,032
245,5	0,026
245,9	0,053
246,4	0,066
246,9	0,062
247,3	0,069
247,8	0,068
248,3	0,084
248,7	0,089
249,2	0,083
249,7	0,097
250,1	0,12
250,6	0,142
251	0,179
251,5	0,22
252	0,26
252,4	0,297
252,9	0,325
253,4	0,35
253,8	0,372
254,3	0,389
254,8	0,39
255,2	0,392
255,7	0,393
256,1	0,387
256,6	0,372
257,1	0,354
257,5	0,336
258	0,312
258,5	0,287
258,9	0,263
259,4	0,24
259,9	0,218
260,3	0,197
260,8	0,176
261,2	0,157
261,7	0,14
262,2	0,123
262,6	0,109
263,1	0,098
263,6	0,085
264	0,075
264,5	0,067
264,9	0,062
265,4	0,058
265,9	0,053
266,3	0,049
266,8	0,045
267,3	0,043
267,7	0,041
268,2	0,039
268,7	0,036
269,1	0,035
269,6	0,034
270	0,033
270,5	0,033
271	0,033
271,4	0,033
271,9	0,033
272,4	0,033
272,8	0,032
273,3	0,033
273,7	0,033
274,2	0,032
274,7	0,032
275,1	0,032
275,6	0,033
276,1	0,033
276,5	0,033
277	0,032
277,4	0,032
277,9	0,033
278,4	0,033
278,8	0,034
279,3	0,035
279,8	0,036
280,2	0,037
280,7	0,038
281,1	0,039
281,6	0,039
282,1	0,039
282,5	0,04
283	0,041
283,4	0,042
283,9	0,043
284,4	0,045
284,8	0,045
285,3	0,046
285,8	0,048
286,2	0,047
286,7	0,048
287,1	0,05
287,6	0,05
288,1	0,051
288,5	0,051
289	0,052
289,5	0,054
289,9	0,054
290,4	0,054
290,8	0,055
291,3	0,056
291,8	0,057
292,2	0,059
292,7	0,061
293,1	0,062
293,6	0,063
294,1	0,064
294,5	0,066
295	0,068
295,5	0,068
295,9	0,069
296,4	0,07
296,8	0,072
297,3	0,074
297,8	0,075
298,2	0,077
298,7	0,079
299,1	0,081
299,6	0,083
300,1	0,084
300,5	0,085
301	0,087
301,5	0,087
301,9	0,089
302,4	0,09
302,8	0,092
303,3	0,094
303,8	0,096
304,2	0,097
304,7	0,099
305,1	0,1
305,6	0,101
306,1	0,103
306,5	0,103
307	0,105
307,4	0,106
307,9	0,107
308,4	0,108
308,8	0,109
309,3	0,11
309,8	0,111
310,2	0,112
310,7	0,113
311,1	0,114
311,6	0,115
312,1	0,116
312,5	0,117
313	0,118
313,4	0,119
313,9	0,12
314,4	0,12
314,8	0,121
315,3	0,121
315,7	0,121
316,2	0,122
316,7	0,122
317,1	0,122
317,6	0,122
318	0,122
318,5	0,122
319	0,122
319,4	0,121
319,9	0,12
320,3	0,12
320,8	0,119
321,3	0,118
321,7	0,118
322,2	0,118
322,6	0,118
323,1	0,119
323,6	0,118
324	0,118
324,5	0,118
324,9	0,117
325,4	0,116
325,9	0,116
326,3	0,115
326,8	0,114
327,2	0,114
327,7	0,114
328,2	0,115
328,6	0,116
329,1	0,116
329,5	0,116
330	0,117
330,5	0,119
330,9	0,12
331,4	0,121
331,8	0,121
332,3	0,122
332,8	0,123
333,2	0,123
333,7	0,124
334,1	0,125
334,6	0,126
335,1	0,127
335,5	0,128
336	0,13
336,4	0,131
336,9	0,133
337,4	0,134
337,8	0,136
338,3	0,137
338,7	0,138
339,2	0,139
339,7	0,139
340,1	0,139
340,6	0,14
341	0,14
341,5	0,141
342	0,142
342,4	0,142
342,9	0,142
343,3	0,142
343,8	0,143
344,2	0,144
344,7	0,143
345,2	0,143
345,6	0,144
346,1	0,144
346,5	0,144
347	0,144
347,5	0,143
347,9	0,143
348,4	0,143
348,8	0,143
349,3	0,143
349,8	0,142
350,2	0,142
350,7	0,142
351,1	0,141
351,6	0,14
352	0,139
352,5	0,139
353	0,139
353,4	0,137
353,9	0,136
354,3	0,135
354,8	0,135
355,3	0,133
355,7	0,132
356,2	0,13
356,6	0,129
357,1	0,127
357,5	0,125
358	0,124
358,5	0,122
358,9	0,121
359,4	0,119
359,8	0,117
360,3	0,115
360,8	0,113
361,2	0,111
361,7	0,11
362,1	0,108
362,6	0,106
363	0,105
363,5	0,103
364	0,101
364,4	0,098
364,9	0,095
365,3	0,092
365,8	0,089
366,3	0,087
366,7	0,084
367,2	0,083
367,6	0,081
368,1	0,079
368,5	0,078
369	0,075
369,5	0,073
369,9	0,071
370,4	0,068
370,8	0,066
371,3	0,063
371,7	0,061
372,2	0,059
372,7	0,057
373,1	0,055
373,6	0,054
374	0,051
374,5	0,049
374,9	0,047
375,4	0,046
375,9	0,044
376,3	0,043
376,8	0,041
377,2	0,04
377,7	0,039
378,2	0,038
378,6	0,036
379,1	0,034
379,5	0,033
380	0,031
380,4	0,03
380,9	0,028
381,4	0,027
381,8	0,025
382,3	0,024
382,7	0,024
383,2	0,023
383,6	0,021
384,1	0,02
384,6	0,019
385	0,018
385,5	0,017
385,9	0,017
386,4	0,016
386,8	0,016
387,3	0,014
387,7	0,014
388,2	0,013
388,7	0,013
389,1	0,012
389,6	0,011
390	0,011
390,5	0,01
390,9	0,01
391,4	0,01
391,9	0,009
392,3	0,009
392,8	0,008
393,2	0,008
393,7	0,008
394,1	0,007
394,6	0,007
395,1	0,007
395,5	0,007
396	0,006
396,4	0,005
396,9	0,005
397,3	0,006
397,8	0,005
398,2	0,004
398,7	0,004
399,2	0,004
399,6	0,005
400,1	0,005
400,5	0,005
401	0,004
401,4	0,004
401,9	0,005
402,4	0,005
402,8	0,004
403,3	0,003
403,7	0,003
404,2	0,004
404,6	0,003
405,1	0,002
405,5	0,003
406	0,003
406,5	0,003
406,9	0,002
407,4	0,002
407,8	0,002
408,3	0,002
408,7	0,001
409,2	0
409,6	0,001
410,1	0,001
410,6	0,001
411	0,001
411,5	0,001
411,9	0,001
412,4	0,001
412,8	0,002
413,3	0,001
413,7	0,001
414,2	0,002
414,7	0,001
415,1	0,002
415,6	0,002
416	0,002
416,5	0,001
416,9	0,001
417,4	0,001
417,8	0,001
418,3	0,001
418,8	0,001
419,2	0,001
419,7	0,001
420,1	0,002
420,6	0,002
421	0,001
421,5	0,001
421,9	0,001
422,4	0,001
422,8	0,001
423,3	0,001
423,8	0,001
424,2	0,001
424,7	0,002
425,1	0,002
425,6	0,002
426	0,002
426,5	0,002
426,9	0,002
427,4	0,002
427,9	0,001
428,3	0,002
428,8	0,001
429,2	0,001
429,7	0
430,1	0
430,6	0,001
431	0
431,5	0,001
431,9	0,001
432,4	0,001
432,8	0,001
433,3	0,001
433,8	0
434,2	0,001
434,7	0
435,1	-0
435,6	0
436	0,001
436,5	0,001
436,9	0,001
437,4	0,001
437,8	0,001
438,3	0,001
438,8	0,001
439,2	-0
439,7	0
440,1	0,001
440,6	0
441	0,001
441,5	0,001
441,9	0,001
442,4	0,001
442,8	0,001
443,3	0,001
443,7	0,001
444,2	0,001
444,7	0,001
445,1	0,001
445,6	0,001
446	0,001
446,5	0,001
446,9	0,001
447,4	-0
447,8	0
448,3	0
448,7	0
449,2	0
449,6	0
450,1	0,001
450,6	0,002
451	0,002
451,5	0,002
451,9	0,002
452,4	0,003
452,8	0,003
453,3	0,002
453,7	0,002
454,2	0,002
454,6	0,001
455,1	0,001
455,5	-0
456	-0
456,4	0
456,9	-0
457,3	-0,001
457,8	0
458,3	0
458,7	0
459,2	0,001
459,6	0
460,1	0,001
460,5	0,001
461	0
461,4	0
461,9	-0
462,3	-0
462,8	0
463,2	0,001
463,7	0,001
464,1	0,002
464,6	0,002
465	0,001
465,5	0,002
466	0,001
466,4	0,001
466,9	0,001
467,3	0,001
467,8	0,001
468,2	0,001
468,7	0,001
469,1	0,001
469,6	0,002
470	0,001
470,5	0,001
470,9	0
471,4	0,001
471,8	0,002
472,3	0,003
472,7	0,002
473,2	0,002
473,6	0,003
474,1	0,003
474,5	0,002
475	0,002
475,4	0,001
475,9	0,002
476,4	0,002
476,8	0,002
477,3	0,002
477,7	0,002
478,2	0,002
478,6	0,002
479,1	0,002
479,5	0,001
480	0,001
480,4	0,001
480,9	0,002
481,3	0,002
481,8	0,002
482,2	0,001
482,7	0,001
483,1	0,001
483,6	0,001
484	-0,001
484,5	0
484,9	0
485,4	0,001
485,8	0,001
486,3	0
486,7	0
487,2	0,001
487,6	0,001
488,1	0,001
488,5	0,001
489	0,001
489,4	0,002
489,9	0,002
490,4	0,002
490,8	0,003
491,3	0,003
491,7	0,002
492,2	0,001
492,6	0,001
493,1	0,001
493,5	0
494	-0
494,4	-0
494,9	0,001
495,3	0,001
495,8	0,002
496,2	0,001
496,7	0,001
497,1	0,001
497,6	0,001
498	0
498,5	0,001
498,9	0,001
499,4	0,001
499,8	0,001
500,3	0,002
500,7	0,002
501,2	0,001
501,6	0,001
502,1	0
502,5	0
503	0
503,4	0
503,9	-0
504,3	0,001
504,8	0,001
505,2	0
505,7	0,001
506,1	0,001
506,6	0,001
507	0,001
507,5	0,001
507,9	0
508,4	0,001
508,8	0,001
509,3	0,001
509,7	0,002
510,2	0,002
510,6	0,001
511,1	0,002
511,5	0,002
512	0,002
512,4	0,002
512,9	0,002
513,3	0,002
513,8	0,001
514,2	0,001
514,7	0,001
515,1	0,001
515,6	0,002
516	0,002
516,5	0,002
516,9	0,002
517,4	0,002
517,8	0,002
518,3	0,001
518,7	0,001
519,2	0,002
519,6	0,002
520,1	0,002
520,5	0,001
521	0,001
521,4	0,002
521,9	0,001
522,3	0,001
522,8	0,001
523,2	0,001
523,7	0
524,1	0,001
524,6	-0
525	0
525,5	0
525,9	-0
526,4	-0
526,8	0
527,3	0
527,7	0,001
528,2	0,002
528,6	0,001
529,1	0,002
529,5	0,002
530	0,002
530,4	0,002
530,9	0,001
531,3	0,001
531,8	0,001
532,2	0,001
532,6	0,001
533,1	0,001
533,5	0
534	-0
534,4	-0
534,9	-0
535,3	-0,001
535,8	-0
536,2	-0,001
536,7	-0
537,1	0
537,6	0,001
538	0,001
538,5	0,001
538,9	0,001
539,4	0,001
539,8	0,001
540,3	0,001
540,7	0,001
541,2	0,001
541,6	0
542,1	0
542,5	0
543	0
543,4	0,001
543,9	0,001
544,3	0,001
544,8	0,002
545,2	0,002
545,7	0,002
546,1	0,001
546,5	0,001
547	0
547,4	0
547,9	0,001
548,3	0
548,8	0,001
549,2	0,001
549,7	0,001
550,1	0,001
550,6	0,001
551	0,001
551,5	0,001
551,9	0,001
552,4	0,001
552,8	0,001
553,3	0,002
553,7	0,002
554,2	0,001
554,6	0,001
555,1	0,001
555,5	0,001
555,9	0
556,4	-0
556,8	0
557,3	0,001
557,7	0
558,2	0
558,6	0,001
559,1	0,001
559,5	0,002
560	0,002
560,4	0,002
560,9	0,002
561,3	0,002
561,8	0,001
562,2	0,001
562,7	0
563,1	0
563,6	-0
564	0
564,4	0
564,9	0,001
565,3	0,001
565,8	0
566,2	0,001
566,7	0,001
567,1	0,001
567,6	0
568	-0
568,5	0
568,9	0,001
569,4	-0
569,8	0
570,3	0
570,7	0
571,1	0
571,6	0
572	-0
572,5	0
572,9	0
573,4	0
573,8	0
574,3	0
574,7	0
575,2	0,001
575,6	0,001
576,1	0,001
576,5	0
576,9	0
577,4	0
577,8	0,001
578,3	0,001
578,7	0,001
579,2	0,001
579,6	0,001
580,1	0,001
580,5	0,001
581	0,001
581,4	0,001
581,9	0,001
582,3	0
582,7	-0
583,2	-0
583,6	-0
584,1	-0
584,5	-0
585	0
585,4	0,001
585,9	0,001
586,3	0
586,8	0
587,2	0,001
587,6	0,001
588,1	0
588,5	0
589	0
589,4	0
589,9	0
590,3	0
590,8	0,001
591,2	0
591,7	0,001
592,1	0,001
592,5	0,001
593	0
593,4	0,001
593,9	0,001
594,3	0,001
594,8	0,001
595,2	0
595,7	0
596,1	0,001
596,6	0
597	0
597,4	0
597,9	0
598,3	0
598,8	-0
599,2	-0,001
599,7	-0
600,1	-0
600,6	-0
601	-0,001
601,4	-0
601,9	0
602,3	0
602,8	0
603,2	0
603,7	0
604,1	0,001
604,6	0
605	0
605,4	0
605,9	0
606,3	0
606,8	0
607,2	0
607,7	0
608,1	0
608,6	0,001
609	0
609,4	0
609,9	0
610,3	0
610,8	0
611,2	0
611,7	0
612,1	-0
612,6	0
613	0
613,4	0
613,9	0
614,3	0
614,8	0,001
615,2	0,001
615,7	0,001
616,1	0,001
616,6	0,002
617	0,001
617,4	0,001
617,9	0,001
618,3	0,001
618,8	0,001
619,2	0,001
619,7	0
620,1	0,001
620,5	0,001
621	0,001
621,4	0,001
621,9	0,001
622,3	0,001
622,8	0,001
623,2	0
623,6	0
624,1	0
624,5	-0
625	0
625,4	-0
625,9	-0
626,3	-0
626,8	0
627,2	0
627,6	0
628,1	0,001
628,5	0,001
629	0,001
629,4	0,001
629,9	0,001
630,3	0,001
630,7	0,001
631,2	0
631,6	0,001
632,1	0
632,5	0,001
633	0,001
633,4	0
633,8	0,001
634,3	0,001
634,7	0
635,2	0
635,6	-0
636,1	-0
636,5	0
636,9	0
637,4	0
637,8	0
638,3	-0
638,7	0,001
639,2	0
639,6	-0
640	-0
640,5	-0
640,9	-0
641,4	0
641,8	0
642,2	-0
642,7	-0
643,1	-0
643,6	0
644	0
644,5	-0
644,9	-0
645,3	0
645,8	-0
646,2	0
646,7	-0
647,1	-0,001
647,6	-0,001
648	-0,001
648,4	-0
648,9	0
649,3	0,001
649,8	0,001
650,2	0,001
650,6	0,001
651,1	0,001
651,5	0,002
652	0,001
652,4	0,001
652,9	0
653,3	0
653,7	0,001
654,2	0,001
654,6	0
655,1	0
655,5	0
655,9	0
656,4	0
656,8	0
657,3	0
657,7	0
658,2	-0
658,6	-0
659	-0
659,5	-0
659,9	0
660,4	0
660,8	0,001
661,2	0,001
661,7	0,001
662,1	0,001
662,6	0,001
663	0,001
663,4	0
663,9	0
664,3	0
664,8	-0
665,2	-0
665,6	-0
666,1	-0
666,5	-0
667	-0
667,4	-0
667,9	-0
668,3	-0
668,7	-0,001
669,2	-0,001
669,6	-0,001
670,1	-0,001
670,5	-0,001
670,9	-0,001
671,4	-0
671,8	-0
672,3	-0
672,7	0
673,1	0
673,6	0
674	0
674,5	-0
674,9	-0
675,3	-0
675,8	-0
676,2	0
676,7	0
677,1	0
677,5	0
678	0,001
678,4	0,001
678,9	0,001
679,3	0
679,7	0,001
680,2	0,001
680,6	0,001
681,1	0,001
681,5	0,001
681,9	0,001
682,4	0
682,8	-0
683,3	-0
683,7	-0
684,1	-0,001
684,6	-0,001
685	-0,001
685,5	-0,001
685,9	-0
686,3	-0
686,8	0
687,2	0
687,7	0,001
688,1	0,001
688,5	0
689	0
689,4	0
689,9	-0
690,3	-0
690,7	-0
691,2	-0
691,6	-0
692	-0,001
692,5	-0
692,9	-0
693,4	-0
693,8	0
694,2	0
694,7	0,001
695,1	0
695,6	0,001
696	0,001
696,4	0,001
696,9	0
697,3	0
697,8	0
698,2	0,001
698,6	0,001
699,1	0,001
699,5	0,001
699,9	0,001
700,4	0,001
700,8	0,001
701,3	0,001
701,7	0,001
702,1	0,001
702,6	0,001
703	0,001
703,5	0
703,9	0
704,3	0
704,8	0
705,2	-0
705,6	0
706,1	0
706,5	0
707	0
707,4	-0
707,8	-0
708,3	0
708,7	0
709,2	0
709,6	0
710	0
710,5	0,001
710,9	0,001
711,3	0,001
711,8	0,001
712,2	0,001
712,7	0,001
713,1	0,001
713,5	0,001
714	0,001
714,4	0,001
714,8	0,001
715,3	0,001
715,7	0,001
716,2	0
716,6	0
717	0,001
717,5	0,001
717,9	0,001
718,3	0
718,8	0
719,2	0,001
719,7	0,001
720,1	0
720,5	-0
721	0
721,4	0
721,8	-0
722,3	-0
722,7	-0
723,2	-0
723,6	0,001
724	0,001
724,5	0,001
724,9	0,001
725,3	0,001
725,8	0,001
726,2	0,001
726,7	0,001
727,1	0,001
727,5	0,001
728	0,001
728,4	0,001
728,8	0,001
729,3	0,001
729,7	0,001
730,1	0,001
730,6	0
731	0
731,5	0
731,9	0
732,3	0
732,8	0
733,2	0
733,6	0,001
734,1	0,001
734,5	0,001
734,9	0,001
735,4	0,001
735,8	0,001
736,3	0,001
736,7	0,001
737,1	0,001
737,6	0
738	0
738,4	0
738,9	0
739,3	0
739,7	0
740,2	0,001
740,6	0,001
741,1	0,001
741,5	0,002
741,9	0,001
742,4	0,002
742,8	0,002
743,2	0,001
743,7	0,001
744,1	0,001
744,5	0
745	0
745,4	0
745,8	0
746,3	0,001
746,7	0,001
747,2	0,001
747,6	0,001
748	0,001
748,5	0,001
748,9	0,001
749,3	0,001
749,8	0,001
750,2	0,001
750,6	0,001
751,1	0,001
751,5	0,001
751,9	0,001
752,4	0,001
752,8	0,001
753,3	0
753,7	-0
754,1	-0
754,6	-0
755	-0
755,4	-0
755,9	0
756,3	0
756,7	0
757,2	0,001
757,6	0
758	0
758,5	0
758,9	-0
759,3	-0
759,8	0
760,2	0
760,6	0
761,1	0
761,5	0,001
761,9	0,001
762,4	0,001
762,8	0,001
763,3	0,001
763,7	0,001
764,1	0
764,6	0
765	0
765,4	0
765,9	0
766,3	-0
766,7	0
767,2	0
767,6	0
768	0
768,5	0
768,9	0,001
769,3	0,001
769,8	0,001
770,2	0,001
770,6	0,001
771,1	0
771,5	0
771,9	-0
772,4	-0
772,8	-0
773,2	-0,001
773,7	-0,001
774,1	-0
774,5	0
775	0,001
775,4	0
775,8	0
776,3	0
776,7	0
777,1	0,001
777,6	0,001
778	0,001
778,4	0
778,9	0,001
779,3	0,001
779,7	0
780,2	-0
780,6	-0
781	-0,001
781,5	-0
781,9	-0
782,3	0
782,8	-0
783,2	-0
783,6	0
784,1	0
784,5	0
784,9	0
785,4	0
785,8	0,001
786,2	0,001
786,7	0,001
787,1	0,001
787,5	0,001
788	0,001
788,4	0,001
788,8	0
789,3	0,001
789,7	0,001
790,1	0,001
790,6	0
791	0
791,4	0
791,9	0
792,3	-0
792,7	-0
793,2	0
793,6	0
794	0,001
794,5	0,001
794,9	0,001
795,3	0,001
795,8	0
796,2	0
796,6	0
797,1	0
797,5	-0
797,9	-0
798,4	-0
798,8	-0
799,2	-0
799,7	-0
800,1	0
800,5	0
801	0
801,4	0,001
801,8	0,001
802,2	0
802,7	0,001
803,1	0
803,5	0,001
804	0,001
804,4	0,001
804,8	0
805,3	0,001
805,7	0,001
806,1	0,001
806,6	0,001
807	0,001
807,4	0,001
807,9	0,001
808,3	0,001
808,7	0,001
809,2	0,001
809,6	0,001
810	0,001
810,4	0,001
810,9	0,001
811,3	0,001
811,7	0,001
812,2	0,001
812,6	0,001
813	0,001
813,5	0,001
813,9	0,001
814,3	0,001
814,8	0
815,2	0
815,6	0
816,1	0
816,5	0
816,9	0
817,3	0,001
817,8	0
818,2	0
818,6	0
819,1	0
819,5	0
819,9	0,001
820,4	0,001
820,8	0
821,2	0,001
821,7	0
822,1	0
822,5	0
822,9	-0
823,4	-0
823,8	0
824,2	0
824,7	0
825,1	0
825,5	0
826	0
826,4	0
826,8	0
827,3	0
827,7	0
828,1	0
828,5	0
829	0
829,4	0
829,8	0
830,3	0
830,7	0
831,1	0,001
831,6	0,001
832	0,001
832,4	0,001
832,8	0,001
833,3	0,001
833,7	0,001
834,1	0,002
834,6	0,001
835	0,001
835,4	0,001
835,8	0,001
836,3	0,002
836,7	0,001
837,1	0,001
837,6	0,002
838	0,001
838,4	0,002
838,9	0,001
839,3	0,001
839,7	0,001
840,1	0,001
840,6	0,001
841	0,001
841,4	0,001
841,9	0,001
842,3	0,001
842,7	0,001
843,1	0,001
843,6	0,001
844	0,001
844,4	0,001
844,9	0,001
845,3	0,001
845,7	0,001
846,2	0
846,6	0
847	0,001
847,4	0,001
847,9	0
848,3	0
848,7	0,001
849,2	0,001
849,6	0,001
850	0,001
850,4	0,001
850,9	0,001
851,3	0,001
851,7	0
852,2	0
852,6	0
853	-0
853,4	0
853,9	-0
854,3	0
854,7	0
855,2	0,001
855,6	0,001
856	0,001
856,4	0
856,9	0,001
857,3	0
857,7	0,001
858,2	0,001
858,6	0,001
859	0,001
859,4	0
859,9	0,001
860,3	0,001
860,7	0
861,1	0
861,6	0
862	0,001
862,4	0,001
862,9	0
863,3	0
863,7	0
864,1	0
864,6	-0
865	-0
865,4	-0
865,9	-0
866,3	0
866,7	-0
867,1	-0
867,6	0
868	0
868,4	0
868,8	-0
869,3	-0
869,7	0
870,1	0,001
870,6	-0
871	-0
871,4	-0
871,8	-0
872,3	-0
872,7	-0
873,1	-0
873,5	0
874	0
874,4	0
874,8	0
875,3	0
875,7	0
876,1	0
876,5	-0,001
877	-0,001
877,4	-0
877,8	-0,001
878,2	-0,001
878,7	-0,001
879,1	-0,001
879,5	-0,001
879,9	-0
880,4	-0
880,8	0
881,2	0,001
881,7	0
882,1	0
882,5	-0
882,9	-0,001
883,4	-0,001
883,8	-0,001
884,2	-0,001
884,6	-0,001
885,1	-0
885,5	0
885,9	-0
886,3	-0
886,8	-0
887,2	-0
887,6	-0,001
888	-0,001
888,5	-0
888,9	0
889,3	0
889,8	0
890,2	0
890,6	0
891	-0
891,5	-0
891,9	-0
892,3	-0
892,7	-0,001
893,2	-0,001
893,6	-0
894	0
894,4	-0
894,9	-0
895,3	0
895,7	0
896,1	0
896,6	0
897	0
897,4	0,001
897,8	0,001
898,3	0,001
898,7	0,001
899,1	0,001
899,5	0,001
900	0,001
900,4	0,001
900,8	0,001
901,2	0,001
901,7	0,001
902,1	0,001
902,5	0
902,9	-0
903,4	0
903,8	0
904,2	-0
904,6	-0
905,1	0
905,5	0
905,9	0
906,3	-0
906,8	-0
907,2	-0
907,6	-0
908	0
908,5	0
908,9	0
909,3	0
909,7	0,001
910,2	0,001
910,6	0
911	0
911,4	0
911,9	0,001
912,3	0
912,7	0,001
913,1	0,001
913,6	0,001
914	0,001
914,4	0,001
914,8	0,001
915,3	0,001
915,7	0,001
916,1	0
916,5	0
916,9	0
917,4	0
917,8	0
918,2	0
918,6	0
919,1	0
919,5	0,001
919,9	0
920,3	0
920,8	0,001
921,2	0,001
921,6	0,001
922	0,001
922,5	0,001
922,9	0,002
923,3	0,001
923,7	0,001
924,2	0,002
924,6	0,002
925	0,002
925,4	0,002
925,8	0,002
926,3	0,003
926,7	0,003
927,1	0,003
927,5	0,003
928	0,002
928,4	0,002
928,8	0,003
929,2	0,003
929,7	0,003
930,1	0,003
930,5	0,004
930,9	0,003
931,3	0,003
931,8	0,003
932,2	0,003
932,6	0,003
933	0,003
933,5	0,003
933,9	0,003
934,3	0,003
934,7	0,003
935,2	0,003
935,6	0,003
936	0,003
936,4	0,004
936,8	0,004
937,3	0,004
937,7	0,004
938,1	0,004
938,5	0,003
939	0,003
939,4	0,003
939,8	0,003
940,2	0,004
940,6	0,004
941,1	0,004
941,5	0,005
941,9	0,006
942,3	0,005
942,8	0,006
943,2	0,005
943,6	0,005
944	0,005
944,4	0,005
944,9	0,005
945,3	0,005
945,7	0,004
946,1	0,005
946,6	0,005
947	0,004
947,4	0,005
947,8	0,004
948,2	0,006
948,7	0,006
949,1	0,005
949,5	0,006
949,9	0,006
950,3	0,006
950,8	0,006
951,2	0,006
951,6	0,006
952	0,006
952,5	0,006
952,9	0,006
953,3	0,007
953,7	0,007
954,1	0,008
954,6	0,008
955	0,008
955,4	0,009
955,8	0,01
956,2	0,01
956,7	0,009
957,1	0,009
957,5	0,01
957,9	0,01
958,3	0,01
958,8	0,009
959,2	0,01
959,6	0,011
960	0,01
960,5	0,01
960,9	0,01
961,3	0,011
961,7	0,012
962,1	0,011
962,6	0,012
963	0,012
963,4	0,013
963,8	0,012
964,2	0,011
964,7	0,011
965,1	0,011
965,5	0,011
965,9	0,011
966,3	0,01
966,8	0,01
967,2	0,01
967,6	0,01
968	0,009
968,4	0,01
968,9	0,01
969,3	0,009
969,7	0,009
970,1	0,009
970,5	0,01
971	0,01
971,4	0,01
971,8	0,009
972,2	0,01
972,6	0,01
973,1	0,01
973,5	0,009
973,9	0,009
974,3	0,009
974,7	0,009
975,2	0,009
975,6	0,009
976	0,008
976,4	0,008
976,8	0,008
977,3	0,008
977,7	0,009
978,1	0,008
978,5	0,008
978,9	0,008
979,4	0,007
979,8	0,007
980,2	0,006
980,6	0,006
981	0,006
981,5	0,006
981,9	0,006
982,3	0,006
982,7	0,006
983,1	0,006
983,6	0,006
984	0,005
984,4	0,005
984,8	0,004
985,2	0,004
985,6	0,004
986,1	0,004
986,5	0,004
986,9	0,004
987,3	0,004
987,7	0,004
988,2	0,004
988,6	0,004
989	0,003
989,4	0,003
989,8	0,004
990,3	0,004
990,7	0,004
991,1	0,004
991,5	0,004
991,9	0,004
992,3	0,004
992,8	0,004
993,2	0,003
993,6	0,002
994	0,002
994,4	0,002
994,9	0,002
995,3	0,002
995,7	0,001
996,1	0
996,5	0,001
996,9	-0
997,4	-0,001
997,8	-0,001
998,2	-0,001
998,6	-0,001
999	-0,001
999,5	-0,001
999,9	-0,002
1000,3	-0,001
1000,7	-0,001
1001,1	-0,001
1001,5	-0,001
1002	-0,001
1002,4	-0,001
1002,8	-0,001
1003,2	-0,001
1003,6	-0,001
1004	-0,001
1004,5	-0,001
1004,9	-0,002
1005,3	-0,002
1005,7	-0,002
1006,1	-0,002
1006,6	-0,001
1007	-0,002
1007,4	-0,002
1007,8	-0,001
1008,2	-0,001
1008,6	-0,001
1009,1	-0,002
1009,5	-0,002
1009,9	-0,002
1010,3	-0,002
1010,7	-0,002
1011,1	-0,002
1011,6	-0,002
1012	-0,003
1012,4	-0,003
1012,8	-0,003
1013,2	-0,003
1013,6	-0,003
1014,1	-0,003
1014,5	-0,003
1014,9	-0,003
1015,3	-0,002
1015,7	-0,003
1016,1	-0,002
1016,6	-0,002
1017	-0,002
1017,4	-0,002
1017,8	-0,002
1018,2	-0,002
1018,6	-0,002
1019,1	-0,002
1019,5	-0,003
1019,9	-0,003
1020,3	-0,004
1020,7	-0,004
1021,1	-0,005
1021,6	-0,004
1022	-0,004
1022,4	-0,005
1022,8	-0,005
1023,2	-0,005
1023,6	-0,005
1024,1	-0,005
1024,5	-0,006
1024,9	-0,006
1025,3	-0,005
1025,7	-0,004
1026,1	-0,004
1026,6	-0,004
1027	-0,003
1027,4	-0,002
1027,8	-0,002
1028,2	-0,002
1028,6	-0,003
1029	-0,003
1029,5	-0,002
1029,9	-0,003
1030,3	-0,003
1030,7	-0,003
1031,1	-0,003
1031,5	-0,003
1032	-0,003
1032,4	-0,003
1032,8	-0,003
1033,2	-0,004
1033,6	-0,005
1034	-0,005
1034,4	-0,005
1034,9	-0,005
1035,3	-0,005
1035,7	-0,005
1036,1	-0,004
1036,5	-0,003
1036,9	-0,002
1037,4	-0,002
1037,8	-0,001
1038,2	-0
1038,6	-0
1039	-0
1039,4	-0,001
1039,8	-0,001
1040,3	-0,002
1040,7	-0,003
1041,1	-0,003
1041,5	-0,004
1041,9	-0,004
1042,3	-0,004
1042,7	-0,004
1043,2	-0,003
1043,6	-0,003
1044	-0,003
1044,4	-0,003
1044,8	-0,003
1045,2	-0,002
1045,6	-0,002
1046,1	-0,003
1046,5	-0,002
1046,9	-0,001
1047,3	-0
1047,7	-0
1048,1	-0,001
1048,5	-0,001
1049	-0,002
1049,4	-0,003
1049,8	-0,004
1050,2	-0,005
1050,6	-0,005
1051	-0,004
1051,4	-0,004
1051,9	-0,004
1052,3	-0,004
1052,7	-0,004
1053,1	-0,004
1053,5	-0,004
1053,9	-0,004
1054,3	-0,004
1054,8	-0,003
1055,2	-0,003
1055,6	-0,003
1056	-0,003
1056,4	-0,002
1056,8	-0,002
1057,2	-0,002
1057,6	-0,004
1058,1	-0,002
1058,5	-0,003
1058,9	-0,003
1059,3	-0,004
1059,7	-0,003
1060,1	-0,004
1060,5	-0,004
1061	-0,005
1061,4	-0,004
1061,8	-0,004
1062,2	-0,003
1062,6	-0,003
1063	-0,001
1063,4	0
1063,8	0
1064,3	0,002
1064,7	0,004
1065,1	0,003
1065,5	0,002
1065,9	0
1066,3	0,001
1066,7	0,001
1067,1	-0,001
1067,6	-0,002
1068	-0,001
1068,4	-0
1068,8	0,001
1069,2	-0
1069,6	0
1070	0
1070,4	0
1070,9	-0,001
1071,3	-0,001
1071,7	-0,001
1072,1	0,001
1072,5	-0
1072,9	-0,001
1073,3	-0,002
1073,7	-0,001
1074,2	-0,001
1074,6	0,001
1075	0,001
1075,4	0,001
1075,8	0,001
1076,2	0,004
1076,6	0,002
1077	0,003
1077,5	0,002
1077,9	0,001
1078,3	0
1078,7	0,001
1079,1	-0,001
1079,5	-0,002
1079,9	-0,002
1080,3	-0,002
1080,7	-0,001
1081,2	-0,001
1081,6	0,002
1082	0,003
1082,4	0,004
1082,8	0,001
1083,2	0,003
1083,6	0,001
1084	0,002
1084,5	-0,002
1084,9	-0,003
1085,3	-0,002
1085,7	-0
1086,1	-0,002
1086,5	0
1086,9	-0,002
1087,3	-0,001
1087,7	0,001
1088,2	-0,001
1088,6	0,003
1089	0,002
1089,4	0,002
1089,8	0,007
1090,2	0,008
1090,6	0,003
1091	0,005
1091,4	0,003
1091,9	0,005
1092,3	0,005
1092,7	0,003
1093,1	-0,003
1093,5	0,003
1093,9	0,003
1094,3	0
1094,7	-0,004
1095,1	-0,007
1095,5	-0,005
1096	-0,002
1096,4	-0,003
1096,8	-0,005
1097,2	-0,001
1097,6	0,008
1098	0,003
1098,4	-0,003
1098,8	0
1099,2	0,009
1099,6	0,009
1100,1	0,015
1100,5	0,014
1100,9	0,027
1101,3	0,025
1101,7	0,026
1102,1	0,023
1102,5	0,023
1102,9	0,012
1103,3	0,006
1103,7	0,009
1104,2	0,005
1104,6	0,007
1105	0,01
1105,4	0,006
1105,8	0,009
1106,2	0,012
1106,6	0,009
1107	0,015
1107,4	0,03
1107,8	-0,038
1108,3	-0
