Data from Absorbance_19-27-33-013.txt Node
Date: Tue Nov 15 19:27:33 MSK 2022
User: vat
Spectrometer: MAYP114033
Trigger mode: 0
Integration Time (sec): 8,000000E-3
Scans to average: 10
Electric dark correction enabled: true
Nonlinearity correction enabled: false
Boxcar width: 3
XAxis mode: Wavelengths
Number of Pixels in Spectrum: 2068
>>>>>Begin Spectral Data<<<<<
199,4	-0,54
199,9	-0,121
200,4	-0,04
200,8	0,073
201,3	0,046
201,8	0,04
202,2	0,074
202,7	0,07
203,2	0,051
203,6	0,036
204,1	0,046
204,6	0,066
205	0,068
205,5	0,051
206	0,062
206,4	0,069
206,9	0,094
207,4	0,048
207,8	0,019
208,3	0,012
208,8	0,053
209,2	0,038
209,7	0,037
210,2	0,047
210,6	0,053
211,1	0,075
211,5	0,074
212	0,024
212,5	0,043
212,9	0,058
213,4	0,026
213,9	0,033
214,3	0,008
214,8	0,009
215,3	0,035
215,7	0,01
216,2	-0,02
216,7	0,014
217,1	0,01
217,6	0,015
218,1	-0,01
218,5	-0,029
219	-0,013
219,5	0,001
219,9	-0,019
220,4	-0,014
220,9	0,014
221,3	0,048
221,8	0,07
222,3	0,088
222,7	0,107
223,2	0,14
223,6	0,15
224,1	0,101
224,6	0,093
225	0,094
225,5	0,077
226	0,065
226,4	0,046
226,9	0,052
227,4	0,081
227,8	0,067
228,3	0,068
228,8	0,06
229,2	0,057
229,7	0,044
230,2	0,03
230,6	0,032
231,1	0,052
231,5	0,065
232	0,075
232,5	0,092
232,9	0,112
233,4	0,088
233,9	0,059
234,3	0,042
234,8	0,017
235,3	0,016
235,7	-0,001
236,2	0,004
236,7	0,005
237,1	0,033
237,6	0,037
238,1	0,065
238,5	0,069
239	0,079
239,4	0,091
239,9	0,112
240,4	0,105
240,8	0,107
241,3	0,085
241,8	0,068
242,2	0,067
242,7	0,04
243,2	0,053
243,6	0,056
244,1	0,079
244,6	0,103
245	0,117
245,5	0,122
245,9	0,123
246,4	0,122
246,9	0,116
247,3	0,106
247,8	0,109
248,3	0,092
248,7	0,097
249,2	0,08
249,7	0,073
250,1	0,078
250,6	0,095
251	0,094
251,5	0,118
252	0,122
252,4	0,136
252,9	0,147
253,4	0,152
253,8	0,16
254,3	0,164
254,8	0,161
255,2	0,164
255,7	0,164
256,1	0,164
256,6	0,162
257,1	0,156
257,5	0,156
258	0,156
258,5	0,154
258,9	0,152
259,4	0,151
259,9	0,149
260,3	0,149
260,8	0,147
261,2	0,145
261,7	0,143
262,2	0,142
262,6	0,138
263,1	0,137
263,6	0,133
264	0,13
264,5	0,128
264,9	0,127
265,4	0,126
265,9	0,125
266,3	0,125
266,8	0,125
267,3	0,124
267,7	0,123
268,2	0,121
268,7	0,119
269,1	0,118
269,6	0,114
270	0,112
270,5	0,112
271	0,11
271,4	0,11
271,9	0,109
272,4	0,108
272,8	0,109
273,3	0,108
273,7	0,106
274,2	0,105
274,7	0,103
275,1	0,102
275,6	0,1
276,1	0,099
276,5	0,098
277	0,097
277,4	0,096
277,9	0,094
278,4	0,093
278,8	0,093
279,3	0,092
279,8	0,091
280,2	0,09
280,7	0,089
281,1	0,089
281,6	0,088
282,1	0,087
282,5	0,087
283	0,086
283,4	0,084
283,9	0,083
284,4	0,082
284,8	0,081
285,3	0,08
285,8	0,08
286,2	0,08
286,7	0,079
287,1	0,079
287,6	0,079
288,1	0,077
288,5	0,077
289	0,076
289,5	0,075
289,9	0,074
290,4	0,074
290,8	0,074
291,3	0,075
291,8	0,075
292,2	0,076
292,7	0,077
293,1	0,078
293,6	0,077
294,1	0,078
294,5	0,078
295	0,078
295,5	0,078
295,9	0,079
296,4	0,079
296,8	0,08
297,3	0,08
297,8	0,081
298,2	0,081
298,7	0,082
299,1	0,083
299,6	0,084
300,1	0,085
300,5	0,086
301	0,088
301,5	0,089
301,9	0,089
302,4	0,09
302,8	0,093
303,3	0,094
303,8	0,095
304,2	0,097
304,7	0,099
305,1	0,102
305,6	0,104
306,1	0,106
306,5	0,108
307	0,11
307,4	0,113
307,9	0,116
308,4	0,118
308,8	0,121
309,3	0,123
309,8	0,126
310,2	0,129
310,7	0,132
311,1	0,135
311,6	0,138
312,1	0,14
312,5	0,143
313	0,147
313,4	0,15
313,9	0,153
314,4	0,157
314,8	0,16
315,3	0,164
315,7	0,168
316,2	0,172
316,7	0,175
317,1	0,179
317,6	0,182
318	0,185
318,5	0,189
319	0,192
319,4	0,195
319,9	0,198
320,3	0,202
320,8	0,205
321,3	0,209
321,7	0,211
322,2	0,215
322,6	0,218
323,1	0,222
323,6	0,225
324	0,229
324,5	0,232
324,9	0,235
325,4	0,238
325,9	0,241
326,3	0,243
326,8	0,245
327,2	0,247
327,7	0,249
328,2	0,252
328,6	0,254
329,1	0,256
329,5	0,259
330	0,261
330,5	0,263
330,9	0,265
331,4	0,266
331,8	0,266
332,3	0,267
332,8	0,267
333,2	0,267
333,7	0,266
334,1	0,266
334,6	0,265
335,1	0,265
335,5	0,264
336	0,264
336,4	0,262
336,9	0,262
337,4	0,259
337,8	0,258
338,3	0,255
338,7	0,253
339,2	0,249
339,7	0,245
340,1	0,242
340,6	0,239
341	0,235
341,5	0,231
342	0,226
342,4	0,222
342,9	0,218
343,3	0,214
343,8	0,208
344,2	0,203
344,7	0,198
345,2	0,193
345,6	0,187
346,1	0,182
346,5	0,177
347	0,173
347,5	0,167
347,9	0,163
348,4	0,158
348,8	0,153
349,3	0,148
349,8	0,142
350,2	0,137
350,7	0,133
351,1	0,128
351,6	0,124
352	0,119
352,5	0,116
353	0,111
353,4	0,107
353,9	0,103
354,3	0,099
354,8	0,096
355,3	0,093
355,7	0,089
356,2	0,087
356,6	0,084
357,1	0,081
357,5	0,079
358	0,076
358,5	0,074
358,9	0,072
359,4	0,069
359,8	0,067
360,3	0,066
360,8	0,063
361,2	0,062
361,7	0,06
362,1	0,059
362,6	0,057
363	0,056
363,5	0,054
364	0,053
364,4	0,051
364,9	0,05
365,3	0,049
365,8	0,049
366,3	0,048
366,7	0,048
367,2	0,047
367,6	0,047
368,1	0,046
368,5	0,044
369	0,043
369,5	0,042
369,9	0,04
370,4	0,04
370,8	0,039
371,3	0,039
371,7	0,038
372,2	0,038
372,7	0,037
373,1	0,037
373,6	0,036
374	0,036
374,5	0,035
374,9	0,035
375,4	0,034
375,9	0,034
376,3	0,035
376,8	0,035
377,2	0,035
377,7	0,033
378,2	0,033
378,6	0,033
379,1	0,033
379,5	0,033
380	0,032
380,4	0,032
380,9	0,033
381,4	0,032
381,8	0,032
382,3	0,031
382,7	0,03
383,2	0,03
383,6	0,03
384,1	0,029
384,6	0,029
385	0,028
385,5	0,029
385,9	0,029
386,4	0,029
386,8	0,029
387,3	0,028
387,7	0,029
388,2	0,028
388,7	0,028
389,1	0,028
389,6	0,027
390	0,028
390,5	0,028
390,9	0,027
391,4	0,028
391,9	0,027
392,3	0,028
392,8	0,028
393,2	0,027
393,7	0,027
394,1	0,027
394,6	0,027
395,1	0,027
395,5	0,027
396	0,026
396,4	0,026
396,9	0,025
397,3	0,025
397,8	0,025
398,2	0,024
398,7	0,025
399,2	0,025
399,6	0,026
400,1	0,026
400,5	0,026
401	0,025
401,4	0,025
401,9	0,025
402,4	0,024
402,8	0,023
403,3	0,024
403,7	0,024
404,2	0,024
404,6	0,024
405,1	0,024
405,5	0,024
406	0,025
406,5	0,025
406,9	0,025
407,4	0,025
407,8	0,024
408,3	0,025
408,7	0,024
409,2	0,024
409,6	0,024
410,1	0,024
410,6	0,024
411	0,024
411,5	0,024
411,9	0,024
412,4	0,024
412,8	0,024
413,3	0,024
413,7	0,023
414,2	0,023
414,7	0,023
415,1	0,023
415,6	0,023
416	0,023
416,5	0,022
416,9	0,022
417,4	0,022
417,8	0,021
418,3	0,021
418,8	0,021
419,2	0,021
419,7	0,022
420,1	0,022
420,6	0,022
421	0,023
421,5	0,022
421,9	0,022
422,4	0,021
422,8	0,02
423,3	0,02
423,8	0,02
424,2	0,02
424,7	0,019
425,1	0,019
425,6	0,02
426	0,02
426,5	0,019
426,9	0,019
427,4	0,019
427,9	0,019
428,3	0,019
428,8	0,018
429,2	0,019
429,7	0,019
430,1	0,019
430,6	0,019
431	0,019
431,5	0,019
431,9	0,019
432,4	0,019
432,8	0,019
433,3	0,018
433,8	0,018
434,2	0,019
434,7	0,018
435,1	0,018
435,6	0,018
436	0,018
436,5	0,018
436,9	0,018
437,4	0,017
437,8	0,017
438,3	0,017
438,8	0,017
439,2	0,018
439,7	0,018
440,1	0,018
440,6	0,018
441	0,018
441,5	0,018
441,9	0,019
442,4	0,018
442,8	0,018
443,3	0,017
443,7	0,018
444,2	0,018
444,7	0,018
445,1	0,017
445,6	0,017
446	0,017
446,5	0,017
446,9	0,016
447,4	0,016
447,8	0,016
448,3	0,016
448,7	0,016
449,2	0,015
449,6	0,015
450,1	0,015
450,6	0,016
451	0,015
451,5	0,014
451,9	0,015
452,4	0,015
452,8	0,015
453,3	0,015
453,7	0,015
454,2	0,015
454,6	0,015
455,1	0,016
455,5	0,016
456	0,016
456,4	0,016
456,9	0,016
457,3	0,017
457,8	0,016
458,3	0,015
458,7	0,015
459,2	0,015
459,6	0,015
460,1	0,015
460,5	0,014
461	0,015
461,4	0,015
461,9	0,015
462,3	0,015
462,8	0,015
463,2	0,015
463,7	0,016
464,1	0,016
464,6	0,016
465	0,016
465,5	0,016
466	0,015
466,4	0,015
466,9	0,014
467,3	0,014
467,8	0,014
468,2	0,014
468,7	0,014
469,1	0,013
469,6	0,014
470	0,014
470,5	0,014
470,9	0,013
471,4	0,014
471,8	0,013
472,3	0,013
472,7	0,013
473,2	0,013
473,6	0,013
474,1	0,013
474,5	0,012
475	0,013
475,4	0,013
475,9	0,013
476,4	0,014
476,8	0,014
477,3	0,014
477,7	0,014
478,2	0,014
478,6	0,014
479,1	0,014
479,5	0,013
480	0,013
480,4	0,013
480,9	0,013
481,3	0,013
481,8	0,014
482,2	0,014
482,7	0,013
483,1	0,013
483,6	0,014
484	0,013
484,5	0,013
484,9	0,013
485,4	0,013
485,8	0,014
486,3	0,014
486,7	0,014
487,2	0,014
487,6	0,014
488,1	0,013
488,5	0,014
489	0,014
489,4	0,013
489,9	0,012
490,4	0,013
490,8	0,013
491,3	0,013
491,7	0,013
492,2	0,013
492,6	0,013
493,1	0,012
493,5	0,012
494	0,011
494,4	0,011
494,9	0,011
495,3	0,01
495,8	0,01
496,2	0,011
496,7	0,011
497,1	0,011
497,6	0,012
498	0,012
498,5	0,012
498,9	0,012
499,4	0,012
499,8	0,012
500,3	0,012
500,7	0,012
501,2	0,012
501,6	0,013
502,1	0,013
502,5	0,013
503	0,013
503,4	0,012
503,9	0,013
504,3	0,012
504,8	0,012
505,2	0,011
505,7	0,011
506,1	0,011
506,6	0,011
507	0,01
507,5	0,011
507,9	0,011
508,4	0,011
508,8	0,011
509,3	0,011
509,7	0,011
510,2	0,011
510,6	0,01
511,1	0,01
511,5	0,01
512	0,009
512,4	0,009
512,9	0,009
513,3	0,01
513,8	0,01
514,2	0,011
514,7	0,01
515,1	0,011
515,6	0,012
516	0,011
516,5	0,011
516,9	0,01
517,4	0,009
517,8	0,01
518,3	0,01
518,7	0,01
519,2	0,011
519,6	0,01
520,1	0,01
520,5	0,01
521	0,009
521,4	0,009
521,9	0,009
522,3	0,009
522,8	0,01
523,2	0,01
523,7	0,01
524,1	0,009
524,6	0,009
525	0,01
525,5	0,01
525,9	0,01
526,4	0,01
526,8	0,011
527,3	0,011
527,7	0,011
528,2	0,011
528,6	0,01
529,1	0,01
529,5	0,01
530	0,01
530,4	0,01
530,9	0,009
531,3	0,009
531,8	0,009
532,2	0,009
532,6	0,009
533,1	0,009
533,5	0,009
534	0,009
534,4	0,009
534,9	0,01
535,3	0,01
535,8	0,01
536,2	0,01
536,7	0,009
537,1	0,009
537,6	0,009
538	0,009
538,5	0,009
538,9	0,01
539,4	0,01
539,8	0,01
540,3	0,01
540,7	0,01
541,2	0,01
541,6	0,009
542,1	0,009
542,5	0,009
543	0,009
543,4	0,008
543,9	0,008
544,3	0,008
544,8	0,008
545,2	0,008
545,7	0,008
546,1	0,008
546,5	0,008
547	0,009
547,4	0,008
547,9	0,008
548,3	0,007
548,8	0,006
549,2	0,006
549,7	0,006
550,1	0,006
550,6	0,006
551	0,006
551,5	0,006
551,9	0,007
552,4	0,008
552,8	0,008
553,3	0,008
553,7	0,007
554,2	0,008
554,6	0,008
555,1	0,008
555,5	0,008
555,9	0,008
556,4	0,008
556,8	0,008
557,3	0,007
557,7	0,007
558,2	0,007
558,6	0,007
559,1	0,007
559,5	0,007
560	0,007
560,4	0,007
560,9	0,007
561,3	0,007
561,8	0,007
562,2	0,007
562,7	0,007
563,1	0,007
563,6	0,007
564	0,007
564,4	0,007
564,9	0,007
565,3	0,007
565,8	0,007
566,2	0,007
566,7	0,007
567,1	0,007
567,6	0,007
568	0,007
568,5	0,007
568,9	0,007
569,4	0,007
569,8	0,007
570,3	0,007
570,7	0,008
571,1	0,007
571,6	0,007
572	0,007
572,5	0,006
572,9	0,006
573,4	0,006
573,8	0,006
574,3	0,006
574,7	0,006
575,2	0,006
575,6	0,006
576,1	0,006
576,5	0,006
576,9	0,006
577,4	0,006
577,8	0,006
578,3	0,006
578,7	0,006
579,2	0,006
579,6	0,006
580,1	0,006
580,5	0,006
581	0,006
581,4	0,006
581,9	0,006
582,3	0,006
582,7	0,007
583,2	0,007
583,6	0,007
584,1	0,007
584,5	0,007
585	0,007
585,4	0,006
585,9	0,006
586,3	0,006
586,8	0,006
587,2	0,006
587,6	0,006
588,1	0,007
588,5	0,007
589	0,007
589,4	0,007
589,9	0,007
590,3	0,006
590,8	0,006
591,2	0,006
591,7	0,006
592,1	0,006
592,5	0,006
593	0,006
593,4	0,006
593,9	0,006
594,3	0,005
594,8	0,005
595,2	0,005
595,7	0,005
596,1	0,005
596,6	0,005
597	0,005
597,4	0,005
597,9	0,006
598,3	0,006
598,8	0,006
599,2	0,005
599,7	0,005
600,1	0,005
600,6	0,005
601	0,005
601,4	0,005
601,9	0,005
602,3	0,006
602,8	0,005
603,2	0,005
603,7	0,005
604,1	0,005
604,6	0,005
605	0,005
605,4	0,005
605,9	0,006
606,3	0,006
606,8	0,005
607,2	0,005
607,7	0,006
608,1	0,006
608,6	0,005
609	0,005
609,4	0,005
609,9	0,006
610,3	0,006
610,8	0,005
611,2	0,006
611,7	0,006
612,1	0,005
612,6	0,005
613	0,005
613,4	0,005
613,9	0,005
614,3	0,005
614,8	0,005
615,2	0,005
615,7	0,005
616,1	0,006
616,6	0,006
617	0,006
617,4	0,006
617,9	0,006
618,3	0,006
618,8	0,006
619,2	0,005
619,7	0,005
620,1	0,005
620,5	0,005
621	0,005
621,4	0,005
621,9	0,005
622,3	0,005
622,8	0,005
623,2	0,005
623,6	0,005
624,1	0,005
624,5	0,005
625	0,005
625,4	0,005
625,9	0,005
626,3	0,005
626,8	0,005
627,2	0,005
627,6	0,005
628,1	0,005
628,5	0,005
629	0,005
629,4	0,005
629,9	0,005
630,3	0,005
630,7	0,004
631,2	0,004
631,6	0,004
632,1	0,004
632,5	0,005
633	0,005
633,4	0,005
633,8	0,005
634,3	0,005
634,7	0,005
635,2	0,005
635,6	0,005
636,1	0,005
636,5	0,005
636,9	0,004
637,4	0,004
637,8	0,004
638,3	0,005
638,7	0,005
639,2	0,005
639,6	0,005
640	0,006
640,5	0,006
640,9	0,005
641,4	0,005
641,8	0,005
642,2	0,004
642,7	0,004
643,1	0,004
643,6	0,004
644	0,004
644,5	0,003
644,9	0,003
645,3	0,004
645,8	0,004
646,2	0,003
646,7	0,003
647,1	0,003
647,6	0,003
648	0,004
648,4	0,003
648,9	0,003
649,3	0,003
649,8	0,003
650,2	0,003
650,6	0,003
651,1	0,003
651,5	0,004
652	0,004
652,4	0,004
652,9	0,004
653,3	0,004
653,7	0,004
654,2	0,004
654,6	0,004
655,1	0,003
655,5	0,002
655,9	0,002
656,4	0,002
656,8	0,003
657,3	0,002
657,7	0,002
658,2	0,002
658,6	0,004
659	0,004
659,5	0,004
659,9	0,004
660,4	0,004
660,8	0,004
661,2	0,004
661,7	0,004
662,1	0,004
662,6	0,004
663	0,003
663,4	0,004
663,9	0,004
664,3	0,004
664,8	0,004
665,2	0,004
665,6	0,004
666,1	0,004
666,5	0,003
667	0,003
667,4	0,003
667,9	0,003
668,3	0,003
668,7	0,003
669,2	0,003
669,6	0,003
670,1	0,003
670,5	0,004
670,9	0,004
671,4	0,003
671,8	0,003
672,3	0,003
672,7	0,003
673,1	0,003
673,6	0,003
674	0,003
674,5	0,004
674,9	0,004
675,3	0,004
675,8	0,004
676,2	0,003
676,7	0,003
677,1	0,003
677,5	0,003
678	0,003
678,4	0,003
678,9	0,003
679,3	0,003
679,7	0,003
680,2	0,003
680,6	0,003
681,1	0,003
681,5	0,003
681,9	0,004
682,4	0,004
682,8	0,003
683,3	0,003
683,7	0,003
684,1	0,003
684,6	0,003
685	0,002
685,5	0,002
685,9	0,002
686,3	0,003
686,8	0,003
687,2	0,002
687,7	0,003
688,1	0,003
688,5	0,003
689	0,003
689,4	0,003
689,9	0,003
690,3	0,003
690,7	0,003
691,2	0,003
691,6	0,003
692	0,003
692,5	0,003
692,9	0,003
693,4	0,003
693,8	0,003
694,2	0,003
694,7	0,003
695,1	0,003
695,6	0,003
696	0,003
696,4	0,003
696,9	0,003
697,3	0,003
697,8	0,004
698,2	0,003
698,6	0,003
699,1	0,003
699,5	0,003
699,9	0,002
700,4	0,003
700,8	0,002
701,3	0,002
701,7	0,002
702,1	0,002
702,6	0,002
703	0,002
703,5	0,002
703,9	0,002
704,3	0,002
704,8	0,002
705,2	0,002
705,6	0,002
706,1	0,002
706,5	0,002
707	0,002
707,4	0,002
707,8	0,002
708,3	0,002
708,7	0,003
709,2	0,002
709,6	0,003
710	0,003
710,5	0,003
710,9	0,003
711,3	0,003
711,8	0,003
712,2	0,003
712,7	0,003
713,1	0,003
713,5	0,003
714	0,003
714,4	0,003
714,8	0,003
715,3	0,003
715,7	0,003
716,2	0,003
716,6	0,002
717	0,002
717,5	0,002
717,9	0,002
718,3	0,002
718,8	0,002
719,2	0,002
719,7	0,002
720,1	0,002
720,5	0,002
721	0,002
721,4	0,002
721,8	0,002
722,3	0,002
722,7	0,003
723,2	0,002
723,6	0,003
724	0,003
724,5	0,003
724,9	0,002
725,3	0,002
725,8	0,002
726,2	0,002
726,7	0,002
727,1	0,002
727,5	0,002
728	0,002
728,4	0,002
728,8	0,002
729,3	0,003
729,7	0,003
730,1	0,002
730,6	0,002
731	0,002
731,5	0,002
731,9	0,002
732,3	0,002
732,8	0,002
733,2	0,002
733,6	0,002
734,1	0,002
734,5	0,002
734,9	0,002
735,4	0,002
735,8	0,003
736,3	0,003
736,7	0,003
737,1	0,003
737,6	0,003
738	0,003
738,4	0,003
738,9	0,003
739,3	0,003
739,7	0,002
740,2	0,002
740,6	0,002
741,1	0,002
741,5	0,002
741,9	0,002
742,4	0,002
742,8	0,002
743,2	0,002
743,7	0,002
744,1	0,002
744,5	0,002
745	0,002
745,4	0,003
745,8	0,003
746,3	0,003
746,7	0,003
747,2	0,003
747,6	0,002
748	0,002
748,5	0,002
748,9	0,002
749,3	0,002
749,8	0,002
750,2	0,003
750,6	0,003
751,1	0,003
751,5	0,003
751,9	0,003
752,4	0,003
752,8	0,003
753,3	0,003
753,7	0,003
754,1	0,003
754,6	0,003
755	0,003
755,4	0,003
755,9	0,003
756,3	0,003
756,7	0,002
757,2	0,003
757,6	0,003
758	0,003
758,5	0,003
758,9	0,003
759,3	0,002
759,8	0,003
760,2	0,002
760,6	0,002
761,1	0,003
761,5	0,002
761,9	0,002
762,4	0,002
762,8	0,002
763,3	0,002
763,7	0,003
764,1	0,002
764,6	0,003
765	0,003
765,4	0,003
765,9	0,002
766,3	0,002
766,7	0,002
767,2	0,002
767,6	0,002
768	0,001
768,5	0,001
768,9	0,002
769,3	0,002
769,8	0,002
770,2	0,003
770,6	0,003
771,1	0,003
771,5	0,002
771,9	0,002
772,4	0,001
772,8	0,001
773,2	0,001
773,7	0,001
774,1	0,001
774,5	0,001
775	0,001
775,4	0,002
775,8	0,002
776,3	0,002
776,7	0,002
777,1	0,002
777,6	0,002
778	0,002
778,4	0,001
778,9	0,002
779,3	0,001
779,7	0,001
780,2	0,001
780,6	0,001
781	0,002
781,5	0,002
781,9	0,002
782,3	0,002
782,8	0,002
783,2	0,002
783,6	0,002
784,1	0,002
784,5	0,002
784,9	0,002
785,4	0,001
785,8	0,002
786,2	0,002
786,7	0,001
787,1	0,001
787,5	0,001
788	0,001
788,4	0,002
788,8	0,002
789,3	0,002
789,7	0,002
790,1	0,002
790,6	0,002
791	0,002
791,4	0,002
791,9	0,002
792,3	0,002
792,7	0,002
793,2	0,003
793,6	0,002
794	0,002
794,5	0,002
794,9	0,002
795,3	0,002
795,8	0,002
796,2	0,002
796,6	0,002
797,1	0,002
797,5	0,002
797,9	0,002
798,4	0,002
798,8	0,001
799,2	0,001
799,7	0,001
800,1	0,001
800,5	0,001
801	0,001
801,4	0,001
801,8	0,001
802,2	0,001
802,7	0,001
803,1	0,001
803,5	0,001
804	0,001
804,4	0,001
804,8	0,002
805,3	0,002
805,7	0,002
806,1	0,002
806,6	0,002
807	0,002
807,4	0,001
807,9	0,001
808,3	0,001
808,7	0,001
809,2	0,002
809,6	0,002
810	0,002
810,4	0,002
810,9	0,002
811,3	0,002
811,7	0,002
812,2	0,002
812,6	0,002
813	0,002
813,5	0,001
813,9	0,002
814,3	0,002
814,8	0,002
815,2	0,002
815,6	0,002
816,1	0,002
816,5	0,002
816,9	0,002
817,3	0,001
817,8	0,002
818,2	0,002
818,6	0,002
819,1	0,002
819,5	0,002
819,9	0,002
820,4	0,002
820,8	0,002
821,2	0,001
821,7	0,001
822,1	0,001
822,5	0,001
822,9	0,001
823,4	0,001
823,8	0,001
824,2	0,001
824,7	0,001
825,1	0,002
825,5	0,002
826	0,002
826,4	0,002
826,8	0,002
827,3	0,002
827,7	0,002
828,1	0,002
828,5	0,001
829	0,001
829,4	0,001
829,8	0,001
830,3	0,001
830,7	0,001
831,1	0,001
831,6	0,001
832	0,001
832,4	0,001
832,8	0,001
833,3	0,001
833,7	0,001
834,1	0,002
834,6	0,002
835	0,001
835,4	0,002
835,8	0,002
836,3	0,002
836,7	0,002
837,1	0,002
837,6	0,002
838	0,002
838,4	0,002
838,9	0,002
839,3	0,002
839,7	0,001
840,1	0,001
840,6	0,002
841	0,002
841,4	0,002
841,9	0,002
842,3	0,002
842,7	0,002
843,1	0,002
843,6	0,002
844	0,002
844,4	0,002
844,9	0,002
845,3	0,002
845,7	0,002
846,2	0,001
846,6	0,001
847	0,001
847,4	0,001
847,9	0,002
848,3	0,001
848,7	0,002
849,2	0,002
849,6	0,002
850	0,001
850,4	0,001
850,9	0
851,3	0,001
851,7	0
852,2	0,001
852,6	0,001
853	0,001
853,4	0,001
853,9	0,002
854,3	0,002
854,7	0,002
855,2	0,002
855,6	0,002
856	0,002
856,4	0,002
856,9	0,002
857,3	0,002
857,7	0,002
858,2	0,002
858,6	0,002
859	0,002
859,4	0,002
859,9	0,002
860,3	0,002
860,7	0,002
861,1	0,001
861,6	0,001
862	0,001
862,4	0
862,9	0
863,3	0
863,7	-0
864,1	0
864,6	-0
865	0
865,4	0,001
865,9	0,001
866,3	0,001
866,7	0,001
867,1	0,001
867,6	0,001
868	0,001
868,4	0,001
868,8	0,001
869,3	0,001
869,7	0,001
870,1	0,001
870,6	0,001
871	0,001
871,4	0,001
871,8	0,001
872,3	0,001
872,7	0,001
873,1	0,001
873,5	0,001
874	0,001
874,4	0
874,8	0
875,3	0,001
875,7	0,001
876,1	0,001
876,5	0,001
877	0,001
877,4	0,001
877,8	0,001
878,2	0,001
878,7	0,001
879,1	0,001
879,5	0,001
879,9	0,001
880,4	0,001
880,8	0,001
881,2	0,001
881,7	0,002
882,1	0,001
882,5	0,001
882,9	0,001
883,4	0,001
883,8	0,001
884,2	0,001
884,6	0,001
885,1	0,002
885,5	0,002
885,9	0,002
886,3	0,002
886,8	0,003
887,2	0,003
887,6	0,003
888	0,002
888,5	0,002
888,9	0,002
889,3	0,001
889,8	0,001
890,2	0,001
890,6	0,001
891	0,001
891,5	0,001
891,9	0,001
892,3	0,001
892,7	0,001
893,2	0,001
893,6	0,001
894	0
894,4	0
894,9	0
895,3	-0
895,7	0
896,1	0
896,6	0
897	0
897,4	0,001
897,8	0,001
898,3	0,001
898,7	0,001
899,1	0,001
899,5	0,001
900	0,001
900,4	0
900,8	0,001
901,2	0,001
901,7	0,001
902,1	0,001
902,5	0,001
902,9	0,001
903,4	0,001
903,8	0,001
904,2	0,001
904,6	0
905,1	0,001
905,5	0,001
905,9	0
906,3	0,001
906,8	0,001
907,2	0,001
907,6	0,001
908	0,001
908,5	0,001
908,9	0,001
909,3	0,001
909,7	0,001
910,2	0,001
910,6	0,001
911	0
911,4	0,001
911,9	0
912,3	0
912,7	0,001
913,1	0,001
913,6	0,001
914	0
914,4	0
914,8	0
915,3	0
915,7	0,001
916,1	0,001
916,5	0,001
916,9	0,002
917,4	0,002
917,8	0,001
918,2	0,001
918,6	0,001
919,1	0,001
919,5	0
919,9	0
920,3	0,001
920,8	0,001
921,2	0,001
921,6	0,001
922	0,001
922,5	0,001
922,9	0,001
923,3	0,001
923,7	0,001
924,2	0,001
924,6	0,001
925	0,002
925,4	0,002
925,8	0,002
926,3	0,002
926,7	0,002
927,1	0,003
927,5	0,003
928	0,003
928,4	0,003
928,8	0,003
929,2	0,003
929,7	0,003
930,1	0,003
930,5	0,003
930,9	0,003
931,3	0,003
931,8	0,002
932,2	0,003
932,6	0,003
933	0,003
933,5	0,003
933,9	0,003
934,3	0,003
934,7	0,003
935,2	0,003
935,6	0,003
936	0,003
936,4	0,003
936,8	0,003
937,3	0,002
937,7	0,002
938,1	0,002
938,5	0,002
939	0,003
939,4	0,003
939,8	0,003
940,2	0,003
940,6	0,003
941,1	0,004
941,5	0,004
941,9	0,003
942,3	0,004
942,8	0,005
943,2	0,005
943,6	0,005
944	0,004
944,4	0,004
944,9	0,004
945,3	0,003
945,7	0,002
946,1	0,002
946,6	0,002
947	0,003
947,4	0,003
947,8	0,004
948,2	0,004
948,7	0,004
949,1	0,004
949,5	0,004
949,9	0,004
950,3	0,004
950,8	0,004
951,2	0,004
951,6	0,004
952	0,004
952,5	0,004
952,9	0,004
953,3	0,003
953,7	0,003
954,1	0,004
954,6	0,004
955	0,004
955,4	0,004
955,8	0,004
956,2	0,005
956,7	0,005
957,1	0,005
957,5	0,005
957,9	0,006
958,3	0,006
958,8	0,006
959,2	0,006
959,6	0,006
960	0,006
960,5	0,006
960,9	0,006
961,3	0,006
961,7	0,006
962,1	0,007
962,6	0,007
963	0,006
963,4	0,006
963,8	0,005
964,2	0,005
964,7	0,004
965,1	0,004
965,5	0,004
965,9	0,005
966,3	0,005
966,8	0,006
967,2	0,006
967,6	0,007
968	0,007
968,4	0,006
968,9	0,006
969,3	0,006
969,7	0,005
970,1	0,005
970,5	0,006
971	0,005
971,4	0,005
971,8	0,006
972,2	0,006
972,6	0,006
973,1	0,006
973,5	0,005
973,9	0,005
974,3	0,005
974,7	0,005
975,2	0,004
975,6	0,005
976	0,005
976,4	0,004
976,8	0,004
977,3	0,004
977,7	0,004
978,1	0,005
978,5	0,004
978,9	0,004
979,4	0,004
979,8	0,004
980,2	0,005
980,6	0,005
981	0,004
981,5	0,004
981,9	0,003
982,3	0,003
982,7	0,003
983,1	0,003
983,6	0,003
984	0,003
984,4	0,004
984,8	0,004
985,2	0,003
985,6	0,004
986,1	0,003
986,5	0,003
986,9	0,003
987,3	0,002
987,7	0,002
988,2	0,002
988,6	0,001
989	0,001
989,4	0,002
989,8	0,002
990,3	0,003
990,7	0,003
991,1	0,003
991,5	0,003
991,9	0,003
992,3	0,002
992,8	0,001
993,2	0,001
993,6	0,001
994	0,001
994,4	0,001
994,9	0,001
995,3	0,002
995,7	0,002
996,1	0,002
996,5	0,002
996,9	0,003
997,4	0,002
997,8	0,002
998,2	0,001
998,6	0,001
999	0,001
999,5	0,001
999,9	0,001
1000,3	0,001
1000,7	0
1001,1	0,001
1001,5	0,001
1002	0,001
1002,4	0,001
1002,8	0
1003,2	0,001
1003,6	0,001
1004	0,001
1004,5	0,001
1004,9	0,001
1005,3	0
1005,7	0,001
1006,1	0,001
1006,6	0,001
1007	0
1007,4	-0
1007,8	0,001
1008,2	0,002
1008,6	0,002
1009,1	0,001
1009,5	0,001
1009,9	0,002
1010,3	0,001
1010,7	0,001
1011,1	-0
1011,6	-0
1012	-0
1012,4	-0
1012,8	-0,001
1013,2	-0
1013,6	-0
1014,1	0
1014,5	0,001
1014,9	0,001
1015,3	0,001
1015,7	0,002
1016,1	0,002
1016,6	0,002
1017	0,002
1017,4	0,002
1017,8	0,001
1018,2	0,001
1018,6	0
1019,1	-0
1019,5	0
1019,9	-0,001
1020,3	-0,001
1020,7	-0
1021,1	-0
1021,6	-0
1022	0,001
1022,4	0,001
1022,8	0,001
1023,2	0
1023,6	0,001
1024,1	0,001
1024,5	0,002
1024,9	0,001
1025,3	0
1025,7	-0
1026,1	0,001
1026,6	0
1027	-0
1027,4	-0
1027,8	-0
1028,2	-0
1028,6	0
1029	-0
1029,5	-0,001
1029,9	-0
1030,3	-0
1030,7	0
1031,1	0
1031,5	0
1032	-0
1032,4	-0
1032,8	-0
1033,2	-0,001
1033,6	-0,001
1034	-0,001
1034,4	-0
1034,9	-0
1035,3	-0
1035,7	-0
1036,1	0
1036,5	-0
1036,9	0,001
1037,4	0
1037,8	0,001
1038,2	0,001
1038,6	0,001
1039	0,001
1039,4	0,001
1039,8	0,001
1040,3	0,001
1040,7	0,001
1041,1	0
1041,5	0,001
1041,9	0,001
1042,3	0,001
1042,7	0
1043,2	-0,001
1043,6	-0
1044	0,001
1044,4	-0,001
1044,8	-0,001
1045,2	-0,001
1045,6	-0,002
1046,1	-0,001
1046,5	-0,002
1046,9	-0,002
1047,3	-0,002
1047,7	-0,002
1048,1	-0,002
1048,5	-0,001
1049	-0,001
1049,4	0
1049,8	0
1050,2	0,001
1050,6	0,001
1051	0,002
1051,4	0,002
1051,9	0,002
1052,3	0,002
1052,7	0,002
1053,1	0,002
1053,5	0,003
1053,9	0,003
1054,3	0,003
1054,8	0,003
1055,2	0,001
1055,6	0,002
1056	0,001
1056,4	0,001
1056,8	0,001
1057,2	0,001
1057,6	0
1058,1	0,001
1058,5	0,001
1058,9	0,002
1059,3	0,002
1059,7	0,001
1060,1	0,002
1060,5	0,002
1061	0,003
1061,4	0,002
1061,8	0,003
1062,2	0,002
1062,6	0,002
1063	0,001
1063,4	0,001
1063,8	-0
1064,3	0
1064,7	0
1065,1	0,001
1065,5	0,001
1065,9	0,001
1066,3	0
1066,7	-0
1067,1	-0,002
1067,6	-0,002
1068	-0,003
1068,4	-0,003
1068,8	-0,002
1069,2	-0,002
1069,6	-0,002
1070	-0
1070,4	-0,001
1070,9	-0
1071,3	-0,001
1071,7	-0,001
1072,1	-0,001
1072,5	-0,001
1072,9	-0
1073,3	0,001
1073,7	-0
1074,2	0
1074,6	0
1075	0,002
1075,4	0,001
1075,8	0
1076,2	-0,001
1076,6	0,001
1077	0,001
1077,5	-0
1077,9	-0,001
1078,3	-0,001
1078,7	0
1079,1	0,002
1079,5	0,002
1079,9	0,003
1080,3	0,003
1080,7	0,003
1081,2	0,003
1081,6	0,003
1082	0,003
1082,4	0,003
1082,8	0,002
1083,2	0,003
1083,6	0,004
1084	0,003
1084,5	0,004
1084,9	0,003
1085,3	-0,001
1085,7	-0
1086,1	0,002
1086,5	0,002
1086,9	0,002
1087,3	0,001
1087,7	0,001
1088,2	0,005
1088,6	0,006
1089	0,004
1089,4	0,006
1089,8	0,007
1090,2	0,006
1090,6	0,004
1091	0,006
1091,4	0,007
1091,9	0,004
1092,3	0,005
1092,7	0,006
1093,1	0,004
1093,5	0,011
1093,9	0,011
1094,3	0,014
1094,7	0,014
1095,1	0,017
1095,5	0,013
1096	0,008
1096,4	0,003
1096,8	0
1097,2	-0,004
1097,6	-0,001
1098	-0,005
1098,4	0,004
1098,8	0,018
1099,2	0,018
1099,6	0,012
1100,1	0,007
1100,5	0,005
1100,9	-0,003
1101,3	-0,013
1101,7	-0,015
1102,1	-0,014
1102,5	-0,01
1102,9	-0,002
1103,3	0,003
1103,7	0,016
1104,2	0,014
1104,6	0,019
1105	0,018
1105,4	0,014
1105,8	0,015
1106,2	0,023
1106,6	0,021
1107	0,054
1107,4	0,048
1107,8	0,148
1108,3	-0
