Data from Absorbance_19-17-24-994.txt Node
Date: Tue Nov 15 19:17:24 MSK 2022
User: vat
Spectrometer: MAYP114033
Trigger mode: 0
Integration Time (sec): 8,000000E-3
Scans to average: 10
Electric dark correction enabled: true
Nonlinearity correction enabled: false
Boxcar width: 3
XAxis mode: Wavelengths
Number of Pixels in Spectrum: 2068
>>>>>Begin Spectral Data<<<<<
199,4	-0,459
199,9	-0,257
200,4	-0,159
200,8	-0,031
201,3	-0,03
201,8	-0,03
202,2	-0,002
202,7	-0,007
203,2	-0,006
203,6	-0,004
204,1	-0,003
204,6	0,027
205	0,042
205,5	0,039
206	0,048
206,4	0,077
206,9	0,074
207,4	0,063
207,8	0,03
208,3	0,022
208,8	0,024
209,2	0,014
209,7	0,007
210,2	0,018
210,6	0,032
211,1	0,044
211,5	0,035
212	0,014
212,5	0,019
212,9	0,017
213,4	0,01
213,9	-0,005
214,3	-0,006
214,8	-0,01
215,3	0,015
215,7	-0,004
216,2	-0,035
216,7	-0,007
217,1	-0,013
217,6	-0,033
218,1	-0,045
218,5	-0,067
219	-0,052
219,5	-0,031
219,9	-0,032
220,4	-0,036
220,9	-0,019
221,3	-0,01
221,8	-0,006
222,3	0,03
222,7	0,024
223,2	0,005
223,6	0,007
224,1	-0,003
224,6	-0,002
225	-0,007
225,5	-0,023
226	-0,004
226,4	-0,016
226,9	0,001
227,4	0,024
227,8	0,044
228,3	0,047
228,8	0,045
229,2	0,011
229,7	0,032
230,2	0,04
230,6	0,015
231,1	0,018
231,5	0,03
232	0,034
232,5	0,054
232,9	0,035
233,4	0,018
233,9	0,028
234,3	0,018
234,8	0,004
235,3	-0,005
235,7	0,004
236,2	0,007
236,7	-0,014
237,1	-0,011
237,6	-0,013
238,1	0,005
238,5	0,01
239	0,019
239,4	0,029
239,9	0,056
240,4	0,052
240,8	0,054
241,3	0,018
241,8	-0,006
242,2	-0,017
242,7	-0,023
243,2	-0,011
243,6	-0
244,1	0,039
244,6	0,079
245	0,11
245,5	0,11
245,9	0,126
246,4	0,12
246,9	0,124
247,3	0,088
247,8	0,083
248,3	0,061
248,7	0,071
249,2	0,045
249,7	0,056
250,1	0,05
250,6	0,081
251	0,082
251,5	0,091
252	0,089
252,4	0,097
252,9	0,106
253,4	0,113
253,8	0,113
254,3	0,119
254,8	0,121
255,2	0,127
255,7	0,129
256,1	0,128
256,6	0,127
257,1	0,124
257,5	0,123
258	0,124
258,5	0,121
258,9	0,119
259,4	0,118
259,9	0,117
260,3	0,116
260,8	0,116
261,2	0,114
261,7	0,113
262,2	0,113
262,6	0,112
263,1	0,11
263,6	0,11
264	0,108
264,5	0,11
264,9	0,109
265,4	0,109
265,9	0,108
266,3	0,107
266,8	0,106
267,3	0,105
267,7	0,104
268,2	0,102
268,7	0,101
269,1	0,101
269,6	0,101
270	0,1
270,5	0,099
271	0,096
271,4	0,096
271,9	0,097
272,4	0,095
272,8	0,095
273,3	0,094
273,7	0,093
274,2	0,094
274,7	0,094
275,1	0,093
275,6	0,093
276,1	0,092
276,5	0,092
277	0,093
277,4	0,092
277,9	0,091
278,4	0,091
278,8	0,089
279,3	0,088
279,8	0,088
280,2	0,086
280,7	0,086
281,1	0,087
281,6	0,086
282,1	0,087
282,5	0,087
283	0,086
283,4	0,085
283,9	0,084
284,4	0,082
284,8	0,082
285,3	0,081
285,8	0,081
286,2	0,08
286,7	0,081
287,1	0,081
287,6	0,081
288,1	0,08
288,5	0,08
289	0,08
289,5	0,079
289,9	0,079
290,4	0,079
290,8	0,079
291,3	0,078
291,8	0,077
292,2	0,077
292,7	0,077
293,1	0,078
293,6	0,078
294,1	0,077
294,5	0,077
295	0,077
295,5	0,077
295,9	0,077
296,4	0,076
296,8	0,077
297,3	0,077
297,8	0,077
298,2	0,076
298,7	0,077
299,1	0,077
299,6	0,077
300,1	0,076
300,5	0,076
301	0,076
301,5	0,077
301,9	0,075
302,4	0,075
302,8	0,075
303,3	0,076
303,8	0,076
304,2	0,076
304,7	0,076
305,1	0,078
305,6	0,078
306,1	0,078
306,5	0,078
307	0,079
307,4	0,079
307,9	0,08
308,4	0,081
308,8	0,082
309,3	0,083
309,8	0,083
310,2	0,084
310,7	0,084
311,1	0,084
311,6	0,085
312,1	0,085
312,5	0,086
313	0,087
313,4	0,087
313,9	0,088
314,4	0,088
314,8	0,089
315,3	0,089
315,7	0,09
316,2	0,09
316,7	0,091
317,1	0,092
317,6	0,092
318	0,092
318,5	0,092
319	0,092
319,4	0,093
319,9	0,093
320,3	0,093
320,8	0,094
321,3	0,095
321,7	0,095
322,2	0,096
322,6	0,096
323,1	0,097
323,6	0,098
324	0,099
324,5	0,1
324,9	0,1
325,4	0,101
325,9	0,101
326,3	0,102
326,8	0,102
327,2	0,103
327,7	0,104
328,2	0,104
328,6	0,104
329,1	0,105
329,5	0,106
330	0,106
330,5	0,107
330,9	0,107
331,4	0,107
331,8	0,107
332,3	0,108
332,8	0,108
333,2	0,108
333,7	0,107
334,1	0,108
334,6	0,107
335,1	0,108
335,5	0,107
336	0,107
336,4	0,107
336,9	0,109
337,4	0,108
337,8	0,109
338,3	0,11
338,7	0,11
339,2	0,109
339,7	0,109
340,1	0,108
340,6	0,108
341	0,107
341,5	0,106
342	0,105
342,4	0,105
342,9	0,105
343,3	0,105
343,8	0,104
344,2	0,104
344,7	0,104
345,2	0,103
345,6	0,103
346,1	0,103
346,5	0,102
347	0,101
347,5	0,099
347,9	0,098
348,4	0,098
348,8	0,097
349,3	0,096
349,8	0,094
350,2	0,094
350,7	0,093
351,1	0,093
351,6	0,093
352	0,092
352,5	0,091
353	0,091
353,4	0,09
353,9	0,089
354,3	0,088
354,8	0,088
355,3	0,088
355,7	0,086
356,2	0,086
356,6	0,085
357,1	0,084
357,5	0,083
358	0,082
358,5	0,082
358,9	0,081
359,4	0,08
359,8	0,081
360,3	0,08
360,8	0,08
361,2	0,08
361,7	0,079
362,1	0,079
362,6	0,078
363	0,078
363,5	0,078
364	0,077
364,4	0,076
364,9	0,075
365,3	0,075
365,8	0,075
366,3	0,075
366,7	0,074
367,2	0,073
367,6	0,074
368,1	0,073
368,5	0,072
369	0,072
369,5	0,071
369,9	0,07
370,4	0,07
370,8	0,069
371,3	0,069
371,7	0,068
372,2	0,068
372,7	0,067
373,1	0,067
373,6	0,067
374	0,066
374,5	0,065
374,9	0,065
375,4	0,064
375,9	0,064
376,3	0,064
376,8	0,065
377,2	0,064
377,7	0,064
378,2	0,064
378,6	0,064
379,1	0,064
379,5	0,064
380	0,063
380,4	0,064
380,9	0,064
381,4	0,063
381,8	0,063
382,3	0,063
382,7	0,062
383,2	0,062
383,6	0,061
384,1	0,061
384,6	0,062
385	0,062
385,5	0,062
385,9	0,063
386,4	0,062
386,8	0,063
387,3	0,063
387,7	0,063
388,2	0,062
388,7	0,062
389,1	0,061
389,6	0,061
390	0,061
390,5	0,061
390,9	0,06
391,4	0,06
391,9	0,06
392,3	0,06
392,8	0,061
393,2	0,06
393,7	0,06
394,1	0,06
394,6	0,059
395,1	0,06
395,5	0,059
396	0,059
396,4	0,059
396,9	0,058
397,3	0,058
397,8	0,058
398,2	0,058
398,7	0,058
399,2	0,057
399,6	0,057
400,1	0,057
400,5	0,057
401	0,057
401,4	0,057
401,9	0,057
402,4	0,057
402,8	0,056
403,3	0,056
403,7	0,056
404,2	0,057
404,6	0,057
405,1	0,057
405,5	0,058
406	0,058
406,5	0,059
406,9	0,059
407,4	0,059
407,8	0,058
408,3	0,059
408,7	0,058
409,2	0,058
409,6	0,057
410,1	0,058
410,6	0,057
411	0,058
411,5	0,057
411,9	0,057
412,4	0,057
412,8	0,057
413,3	0,057
413,7	0,056
414,2	0,056
414,7	0,056
415,1	0,056
415,6	0,055
416	0,055
416,5	0,055
416,9	0,054
417,4	0,055
417,8	0,054
418,3	0,055
418,8	0,055
419,2	0,055
419,7	0,055
420,1	0,056
420,6	0,056
421	0,056
421,5	0,056
421,9	0,056
422,4	0,055
422,8	0,055
423,3	0,054
423,8	0,054
424,2	0,054
424,7	0,054
425,1	0,054
425,6	0,054
426	0,054
426,5	0,054
426,9	0,054
427,4	0,054
427,9	0,054
428,3	0,054
428,8	0,054
429,2	0,053
429,7	0,054
430,1	0,054
430,6	0,054
431	0,053
431,5	0,054
431,9	0,054
432,4	0,055
432,8	0,054
433,3	0,053
433,8	0,054
434,2	0,054
434,7	0,053
435,1	0,054
435,6	0,053
436	0,053
436,5	0,053
436,9	0,053
437,4	0,053
437,8	0,053
438,3	0,054
438,8	0,054
439,2	0,055
439,7	0,056
440,1	0,055
440,6	0,055
441	0,055
441,5	0,055
441,9	0,055
442,4	0,054
442,8	0,054
443,3	0,054
443,7	0,054
444,2	0,054
444,7	0,054
445,1	0,054
445,6	0,054
446	0,054
446,5	0,054
446,9	0,054
447,4	0,054
447,8	0,054
448,3	0,054
448,7	0,054
449,2	0,053
449,6	0,053
450,1	0,053
450,6	0,054
451	0,053
451,5	0,052
451,9	0,053
452,4	0,053
452,8	0,053
453,3	0,053
453,7	0,053
454,2	0,053
454,6	0,054
455,1	0,054
455,5	0,055
456	0,055
456,4	0,055
456,9	0,056
457,3	0,056
457,8	0,056
458,3	0,055
458,7	0,055
459,2	0,054
459,6	0,055
460,1	0,054
460,5	0,054
461	0,054
461,4	0,054
461,9	0,054
462,3	0,054
462,8	0,054
463,2	0,054
463,7	0,054
464,1	0,055
464,6	0,055
465	0,055
465,5	0,055
466	0,055
466,4	0,055
466,9	0,055
467,3	0,055
467,8	0,055
468,2	0,055
468,7	0,055
469,1	0,054
469,6	0,053
470	0,053
470,5	0,053
470,9	0,053
471,4	0,054
471,8	0,053
472,3	0,054
472,7	0,054
473,2	0,054
473,6	0,053
474,1	0,053
474,5	0,053
475	0,053
475,4	0,053
475,9	0,053
476,4	0,054
476,8	0,053
477,3	0,053
477,7	0,053
478,2	0,052
478,6	0,053
479,1	0,053
479,5	0,053
480	0,053
480,4	0,052
480,9	0,052
481,3	0,053
481,8	0,053
482,2	0,053
482,7	0,052
483,1	0,052
483,6	0,054
484	0,054
484,5	0,054
484,9	0,054
485,4	0,053
485,8	0,054
486,3	0,054
486,7	0,054
487,2	0,054
487,6	0,054
488,1	0,054
488,5	0,054
489	0,054
489,4	0,053
489,9	0,053
490,4	0,053
490,8	0,052
491,3	0,053
491,7	0,053
492,2	0,053
492,6	0,053
493,1	0,052
493,5	0,052
494	0,052
494,4	0,052
494,9	0,052
495,3	0,052
495,8	0,053
496,2	0,054
496,7	0,053
497,1	0,054
497,6	0,055
498	0,055
498,5	0,055
498,9	0,055
499,4	0,055
499,8	0,055
500,3	0,054
500,7	0,052
501,2	0,052
501,6	0,052
502,1	0,052
502,5	0,052
503	0,052
503,4	0,052
503,9	0,054
504,3	0,054
504,8	0,054
505,2	0,054
505,7	0,054
506,1	0,054
506,6	0,053
507	0,053
507,5	0,053
507,9	0,053
508,4	0,054
508,8	0,054
509,3	0,054
509,7	0,055
510,2	0,054
510,6	0,054
511,1	0,054
511,5	0,054
512	0,054
512,4	0,054
512,9	0,055
513,3	0,055
513,8	0,055
514,2	0,056
514,7	0,055
515,1	0,055
515,6	0,055
516	0,055
516,5	0,055
516,9	0,054
517,4	0,054
517,8	0,055
518,3	0,055
518,7	0,056
519,2	0,056
519,6	0,056
520,1	0,055
520,5	0,055
521	0,054
521,4	0,053
521,9	0,053
522,3	0,054
522,8	0,054
523,2	0,055
523,7	0,056
524,1	0,055
524,6	0,056
525	0,056
525,5	0,056
525,9	0,056
526,4	0,056
526,8	0,056
527,3	0,056
527,7	0,056
528,2	0,055
528,6	0,055
529,1	0,055
529,5	0,055
530	0,055
530,4	0,055
530,9	0,054
531,3	0,055
531,8	0,054
532,2	0,055
532,6	0,055
533,1	0,054
533,5	0,055
534	0,056
534,4	0,055
534,9	0,056
535,3	0,056
535,8	0,056
536,2	0,056
536,7	0,055
537,1	0,056
537,6	0,056
538	0,055
538,5	0,056
538,9	0,056
539,4	0,056
539,8	0,056
540,3	0,056
540,7	0,056
541,2	0,055
541,6	0,055
542,1	0,055
542,5	0,055
543	0,056
543,4	0,055
543,9	0,056
544,3	0,056
544,8	0,056
545,2	0,056
545,7	0,056
546,1	0,056
546,5	0,056
547	0,056
547,4	0,056
547,9	0,055
548,3	0,055
548,8	0,055
549,2	0,054
549,7	0,054
550,1	0,054
550,6	0,054
551	0,053
551,5	0,054
551,9	0,054
552,4	0,054
552,8	0,054
553,3	0,054
553,7	0,054
554,2	0,054
554,6	0,054
555,1	0,054
555,5	0,054
555,9	0,054
556,4	0,055
556,8	0,055
557,3	0,055
557,7	0,054
558,2	0,054
558,6	0,054
559,1	0,054
559,5	0,054
560	0,053
560,4	0,054
560,9	0,054
561,3	0,055
561,8	0,055
562,2	0,055
562,7	0,054
563,1	0,054
563,6	0,054
564	0,054
564,4	0,053
564,9	0,053
565,3	0,053
565,8	0,053
566,2	0,053
566,7	0,053
567,1	0,053
567,6	0,053
568	0,053
568,5	0,052
568,9	0,052
569,4	0,052
569,8	0,051
570,3	0,051
570,7	0,052
571,1	0,051
571,6	0,052
572	0,052
572,5	0,052
572,9	0,052
573,4	0,052
573,8	0,051
574,3	0,052
574,7	0,051
575,2	0,051
575,6	0,051
576,1	0,051
576,5	0,051
576,9	0,051
577,4	0,051
577,8	0,051
578,3	0,051
578,7	0,051
579,2	0,051
579,6	0,05
580,1	0,051
580,5	0,05
581	0,05
581,4	0,05
581,9	0,05
582,3	0,05
582,7	0,05
583,2	0,05
583,6	0,05
584,1	0,049
584,5	0,05
585	0,049
585,4	0,049
585,9	0,049
586,3	0,048
586,8	0,048
587,2	0,048
587,6	0,048
588,1	0,048
588,5	0,048
589	0,048
589,4	0,048
589,9	0,048
590,3	0,048
590,8	0,048
591,2	0,048
591,7	0,048
592,1	0,048
592,5	0,048
593	0,048
593,4	0,048
593,9	0,048
594,3	0,047
594,8	0,047
595,2	0,047
595,7	0,047
596,1	0,047
596,6	0,046
597	0,046
597,4	0,046
597,9	0,046
598,3	0,046
598,8	0,046
599,2	0,045
599,7	0,045
600,1	0,045
600,6	0,046
601	0,045
601,4	0,044
601,9	0,044
602,3	0,045
602,8	0,044
603,2	0,044
603,7	0,043
604,1	0,043
604,6	0,044
605	0,044
605,4	0,044
605,9	0,045
606,3	0,045
606,8	0,044
607,2	0,044
607,7	0,044
608,1	0,044
608,6	0,043
609	0,043
609,4	0,042
609,9	0,043
610,3	0,043
610,8	0,043
611,2	0,043
611,7	0,043
612,1	0,043
612,6	0,043
613	0,043
613,4	0,042
613,9	0,043
614,3	0,042
614,8	0,042
615,2	0,042
615,7	0,042
616,1	0,042
616,6	0,042
617	0,042
617,4	0,041
617,9	0,042
618,3	0,042
618,8	0,041
619,2	0,041
619,7	0,04
620,1	0,04
620,5	0,04
621	0,04
621,4	0,04
621,9	0,04
622,3	0,04
622,8	0,04
623,2	0,04
623,6	0,04
624,1	0,04
624,5	0,04
625	0,04
625,4	0,039
625,9	0,039
626,3	0,039
626,8	0,039
627,2	0,039
627,6	0,039
628,1	0,039
628,5	0,039
629	0,039
629,4	0,038
629,9	0,038
630,3	0,038
630,7	0,037
631,2	0,037
631,6	0,037
632,1	0,037
632,5	0,037
633	0,037
633,4	0,036
633,8	0,036
634,3	0,036
634,7	0,036
635,2	0,036
635,6	0,036
636,1	0,036
636,5	0,036
636,9	0,036
637,4	0,036
637,8	0,036
638,3	0,036
638,7	0,036
639,2	0,036
639,6	0,036
640	0,036
640,5	0,035
640,9	0,035
641,4	0,035
641,8	0,035
642,2	0,034
642,7	0,034
643,1	0,034
643,6	0,033
644	0,033
644,5	0,033
644,9	0,033
645,3	0,033
645,8	0,033
646,2	0,032
646,7	0,033
647,1	0,033
647,6	0,033
648	0,033
648,4	0,032
648,9	0,032
649,3	0,032
649,8	0,032
650,2	0,031
650,6	0,031
651,1	0,031
651,5	0,031
652	0,031
652,4	0,031
652,9	0,032
653,3	0,032
653,7	0,032
654,2	0,032
654,6	0,032
655,1	0,031
655,5	0,021
655,9	0,023
656,4	0,023
656,8	0,023
657,3	0,022
657,7	0,021
658,2	0,018
658,6	0,03
659	0,03
659,5	0,03
659,9	0,029
660,4	0,029
660,8	0,029
661,2	0,029
661,7	0,029
662,1	0,029
662,6	0,028
663	0,028
663,4	0,028
663,9	0,028
664,3	0,028
664,8	0,028
665,2	0,028
665,6	0,028
666,1	0,028
666,5	0,028
667	0,028
667,4	0,027
667,9	0,027
668,3	0,027
668,7	0,027
669,2	0,026
669,6	0,026
670,1	0,026
670,5	0,026
670,9	0,026
671,4	0,025
671,8	0,025
672,3	0,025
672,7	0,025
673,1	0,025
673,6	0,025
674	0,025
674,5	0,025
674,9	0,026
675,3	0,026
675,8	0,026
676,2	0,025
676,7	0,025
677,1	0,025
677,5	0,025
678	0,024
678,4	0,024
678,9	0,024
679,3	0,024
679,7	0,024
680,2	0,024
680,6	0,024
681,1	0,024
681,5	0,024
681,9	0,024
682,4	0,024
682,8	0,023
683,3	0,022
683,7	0,022
684,1	0,023
684,6	0,023
685	0,022
685,5	0,022
685,9	0,022
686,3	0,023
686,8	0,023
687,2	0,022
687,7	0,022
688,1	0,022
688,5	0,022
689	0,022
689,4	0,021
689,9	0,022
690,3	0,022
690,7	0,021
691,2	0,021
691,6	0,021
692	0,021
692,5	0,021
692,9	0,021
693,4	0,021
693,8	0,021
694,2	0,021
694,7	0,021
695,1	0,021
695,6	0,02
696	0,02
696,4	0,02
696,9	0,02
697,3	0,02
697,8	0,02
698,2	0,019
698,6	0,019
699,1	0,019
699,5	0,019
699,9	0,019
700,4	0,019
700,8	0,019
701,3	0,019
701,7	0,019
702,1	0,018
702,6	0,018
703	0,018
703,5	0,018
703,9	0,018
704,3	0,018
704,8	0,017
705,2	0,017
705,6	0,017
706,1	0,017
706,5	0,017
707	0,017
707,4	0,017
707,8	0,017
708,3	0,017
708,7	0,017
709,2	0,017
709,6	0,017
710	0,017
710,5	0,017
710,9	0,017
711,3	0,017
711,8	0,017
712,2	0,017
712,7	0,017
713,1	0,016
713,5	0,016
714	0,017
714,4	0,016
714,8	0,016
715,3	0,016
715,7	0,016
716,2	0,016
716,6	0,016
717	0,016
717,5	0,016
717,9	0,015
718,3	0,015
718,8	0,015
719,2	0,015
719,7	0,015
720,1	0,015
720,5	0,015
721	0,015
721,4	0,015
721,8	0,015
722,3	0,015
722,7	0,015
723,2	0,015
723,6	0,015
724	0,015
724,5	0,015
724,9	0,014
725,3	0,014
725,8	0,014
726,2	0,014
726,7	0,014
727,1	0,014
727,5	0,014
728	0,014
728,4	0,014
728,8	0,014
729,3	0,014
729,7	0,014
730,1	0,013
730,6	0,013
731	0,013
731,5	0,013
731,9	0,013
732,3	0,013
732,8	0,013
733,2	0,013
733,6	0,012
734,1	0,013
734,5	0,013
734,9	0,012
735,4	0,013
735,8	0,013
736,3	0,013
736,7	0,014
737,1	0,014
737,6	0,014
738	0,014
738,4	0,014
738,9	0,013
739,3	0,013
739,7	0,013
740,2	0,012
740,6	0,012
741,1	0,012
741,5	0,012
741,9	0,012
742,4	0,012
742,8	0,012
743,2	0,012
743,7	0,012
744,1	0,012
744,5	0,012
745	0,012
745,4	0,012
745,8	0,012
746,3	0,012
746,7	0,012
747,2	0,012
747,6	0,012
748	0,012
748,5	0,011
748,9	0,011
749,3	0,011
749,8	0,011
750,2	0,011
750,6	0,011
751,1	0,011
751,5	0,011
751,9	0,011
752,4	0,011
752,8	0,011
753,3	0,011
753,7	0,011
754,1	0,011
754,6	0,011
755	0,011
755,4	0,01
755,9	0,01
756,3	0,01
756,7	0,01
757,2	0,01
757,6	0,01
758	0,01
758,5	0,011
758,9	0,011
759,3	0,011
759,8	0,011
760,2	0,01
760,6	0,01
761,1	0,01
761,5	0,01
761,9	0,01
762,4	0,01
762,8	0,01
763,3	0,01
763,7	0,01
764,1	0,01
764,6	0,01
765	0,01
765,4	0,01
765,9	0,009
766,3	0,009
766,7	0,009
767,2	0,009
767,6	0,009
768	0,009
768,5	0,009
768,9	0,009
769,3	0,01
769,8	0,01
770,2	0,01
770,6	0,01
771,1	0,01
771,5	0,01
771,9	0,01
772,4	0,009
772,8	0,009
773,2	0,009
773,7	0,009
774,1	0,008
774,5	0,008
775	0,008
775,4	0,009
775,8	0,008
776,3	0,009
776,7	0,008
777,1	0,008
777,6	0,009
778	0,008
778,4	0,008
778,9	0,008
779,3	0,008
779,7	0,008
780,2	0,008
780,6	0,008
781	0,008
781,5	0,009
781,9	0,009
782,3	0,009
782,8	0,009
783,2	0,009
783,6	0,009
784,1	0,008
784,5	0,008
784,9	0,008
785,4	0,008
785,8	0,007
786,2	0,008
786,7	0,007
787,1	0,007
787,5	0,007
788	0,007
788,4	0,008
788,8	0,008
789,3	0,008
789,7	0,008
790,1	0,008
790,6	0,007
791	0,007
791,4	0,007
791,9	0,007
792,3	0,008
792,7	0,008
793,2	0,008
793,6	0,008
794	0,008
794,5	0,008
794,9	0,008
795,3	0,008
795,8	0,008
796,2	0,008
796,6	0,008
797,1	0,007
797,5	0,007
797,9	0,007
798,4	0,008
798,8	0,007
799,2	0,007
799,7	0,007
800,1	0,007
800,5	0,007
801	0,007
801,4	0,006
801,8	0,007
802,2	0,006
802,7	0,007
803,1	0,006
803,5	0,007
804	0,007
804,4	0,007
804,8	0,007
805,3	0,007
805,7	0,006
806,1	0,006
806,6	0,007
807	0,007
807,4	0,006
807,9	0,006
808,3	0,006
808,7	0,006
809,2	0,006
809,6	0,006
810	0,006
810,4	0,006
810,9	0,006
811,3	0,006
811,7	0,006
812,2	0,006
812,6	0,006
813	0,006
813,5	0,006
813,9	0,005
814,3	0,006
814,8	0,005
815,2	0,006
815,6	0,006
816,1	0,006
816,5	0,005
816,9	0,006
817,3	0,006
817,8	0,006
818,2	0,006
818,6	0,006
819,1	0,006
819,5	0,006
819,9	0,006
820,4	0,006
820,8	0,006
821,2	0,005
821,7	0,006
822,1	0,005
822,5	0,006
822,9	0,006
823,4	0,006
823,8	0,006
824,2	0,006
824,7	0,006
825,1	0,006
825,5	0,006
826	0,006
826,4	0,006
826,8	0,006
827,3	0,006
827,7	0,006
828,1	0,005
828,5	0,005
829	0,005
829,4	0,005
829,8	0,005
830,3	0,005
830,7	0,005
831,1	0,005
831,6	0,005
832	0,005
832,4	0,005
832,8	0,005
833,3	0,005
833,7	0,005
834,1	0,005
834,6	0,004
835	0,004
835,4	0,004
835,8	0,004
836,3	0,004
836,7	0,004
837,1	0,004
837,6	0,004
838	0,005
838,4	0,005
838,9	0,004
839,3	0,005
839,7	0,005
840,1	0,005
840,6	0,005
841	0,005
841,4	0,005
841,9	0,005
842,3	0,005
842,7	0,005
843,1	0,005
843,6	0,005
844	0,005
844,4	0,006
844,9	0,005
845,3	0,005
845,7	0,005
846,2	0,005
846,6	0,005
847	0,005
847,4	0,005
847,9	0,005
848,3	0,005
848,7	0,004
849,2	0,004
849,6	0,004
850	0,004
850,4	0,004
850,9	0,004
851,3	0,004
851,7	0,004
852,2	0,004
852,6	0,004
853	0,004
853,4	0,004
853,9	0,004
854,3	0,004
854,7	0,004
855,2	0,004
855,6	0,004
856	0,004
856,4	0,004
856,9	0,004
857,3	0,004
857,7	0,004
858,2	0,004
858,6	0,004
859	0,004
859,4	0,004
859,9	0,004
860,3	0,004
860,7	0,004
861,1	0,004
861,6	0,003
862	0,003
862,4	0,003
862,9	0,003
863,3	0,003
863,7	0,003
864,1	0,003
864,6	0,003
865	0,003
865,4	0,004
865,9	0,004
866,3	0,004
866,7	0,004
867,1	0,004
867,6	0,004
868	0,004
868,4	0,004
868,8	0,004
869,3	0,004
869,7	0,003
870,1	0,003
870,6	0,004
871	0,003
871,4	0,003
871,8	0,003
872,3	0,003
872,7	0,003
873,1	0,003
873,5	0,003
874	0,003
874,4	0,003
874,8	0,002
875,3	0,003
875,7	0,003
876,1	0,003
876,5	0,003
877	0,003
877,4	0,003
877,8	0,003
878,2	0,003
878,7	0,003
879,1	0,003
879,5	0,004
879,9	0,003
880,4	0,003
880,8	0,004
881,2	0,003
881,7	0,003
882,1	0,003
882,5	0,003
882,9	0,003
883,4	0,003
883,8	0,003
884,2	0,002
884,6	0,003
885,1	0,003
885,5	0,003
885,9	0,003
886,3	0,004
886,8	0,004
887,2	0,004
887,6	0,004
888	0,004
888,5	0,004
888,9	0,003
889,3	0,003
889,8	0,002
890,2	0,002
890,6	0,002
891	0,002
891,5	0,002
891,9	0,002
892,3	0,002
892,7	0,002
893,2	0,003
893,6	0,003
894	0,003
894,4	0,003
894,9	0,003
895,3	0,002
895,7	0,003
896,1	0,003
896,6	0,003
897	0,003
897,4	0,003
897,8	0,003
898,3	0,004
898,7	0,003
899,1	0,003
899,5	0,003
900	0,002
900,4	0,002
900,8	0,002
901,2	0,002
901,7	0,002
902,1	0,002
902,5	0,002
902,9	0,003
903,4	0,003
903,8	0,003
904,2	0,003
904,6	0,003
905,1	0,003
905,5	0,003
905,9	0,003
906,3	0,003
906,8	0,003
907,2	0,004
907,6	0,003
908	0,003
908,5	0,003
908,9	0,003
909,3	0,003
909,7	0,003
910,2	0,002
910,6	0,002
911	0,002
911,4	0,002
911,9	0,002
912,3	0,002
912,7	0,002
913,1	0,002
913,6	0,002
914	0,002
914,4	0,002
914,8	0,002
915,3	0,002
915,7	0,002
916,1	0,002
916,5	0,002
916,9	0,003
917,4	0,003
917,8	0,003
918,2	0,003
918,6	0,003
919,1	0,003
919,5	0,003
919,9	0,002
920,3	0,002
920,8	0,002
921,2	0,002
921,6	0,002
922	0,002
922,5	0,002
922,9	0,002
923,3	0,002
923,7	0,002
924,2	0,002
924,6	0,002
925	0,003
925,4	0,002
925,8	0,003
926,3	0,003
926,7	0,003
927,1	0,004
927,5	0,003
928	0,003
928,4	0,004
928,8	0,004
929,2	0,004
929,7	0,004
930,1	0,004
930,5	0,004
930,9	0,004
931,3	0,004
931,8	0,004
932,2	0,004
932,6	0,004
933	0,004
933,5	0,004
933,9	0,004
934,3	0,004
934,7	0,004
935,2	0,004
935,6	0,004
936	0,003
936,4	0,003
936,8	0,003
937,3	0,003
937,7	0,003
938,1	0,003
938,5	0,003
939	0,003
939,4	0,003
939,8	0,003
940,2	0,003
940,6	0,003
941,1	0,003
941,5	0,003
941,9	0,003
942,3	0,003
942,8	0,003
943,2	0,003
943,6	0,003
944	0,002
944,4	0,002
944,9	0,002
945,3	0,002
945,7	0,002
946,1	0,003
946,6	0,002
947	0,003
947,4	0,003
947,8	0,004
948,2	0,004
948,7	0,003
949,1	0,004
949,5	0,004
949,9	0,004
950,3	0,004
950,8	0,003
951,2	0,004
951,6	0,004
952	0,004
952,5	0,005
952,9	0,004
953,3	0,004
953,7	0,004
954,1	0,004
954,6	0,004
955	0,004
955,4	0,004
955,8	0,004
956,2	0,005
956,7	0,006
957,1	0,006
957,5	0,006
957,9	0,006
958,3	0,006
958,8	0,007
959,2	0,006
959,6	0,006
960	0,005
960,5	0,005
960,9	0,006
961,3	0,006
961,7	0,005
962,1	0,006
962,6	0,006
963	0,005
963,4	0,005
963,8	0,004
964,2	0,004
964,7	0,004
965,1	0,005
965,5	0,005
965,9	0,006
966,3	0,007
966,8	0,007
967,2	0,008
967,6	0,007
968	0,007
968,4	0,006
968,9	0,006
969,3	0,006
969,7	0,006
970,1	0,005
970,5	0,006
971	0,005
971,4	0,005
971,8	0,005
972,2	0,006
972,6	0,005
973,1	0,005
973,5	0,005
973,9	0,005
974,3	0,005
974,7	0,005
975,2	0,004
975,6	0,005
976	0,005
976,4	0,004
976,8	0,004
977,3	0,003
977,7	0,003
978,1	0,003
978,5	0,002
978,9	0,002
979,4	0,002
979,8	0,002
980,2	0,002
980,6	0,002
981	0,003
981,5	0,003
981,9	0,003
982,3	0,003
982,7	0,003
983,1	0,003
983,6	0,004
984	0,004
984,4	0,005
984,8	0,004
985,2	0,005
985,6	0,005
986,1	0,005
986,5	0,004
986,9	0,003
987,3	0,002
987,7	0,003
988,2	0,003
988,6	0,002
989	0,002
989,4	0,002
989,8	0,002
990,3	0,003
990,7	0,003
991,1	0,002
991,5	0,003
991,9	0,002
992,3	0,002
992,8	0,001
993,2	0,001
993,6	0
994	-0
994,4	0
994,9	0,001
995,3	0,001
995,7	0,002
996,1	0,001
996,5	0,001
996,9	0,001
997,4	0,001
997,8	0,001
998,2	0
998,6	-0,001
999	-0
999,5	-0
999,9	0,001
1000,3	0,001
1000,7	0
1001,1	0,001
1001,5	0,001
1002	0,002
1002,4	0,002
1002,8	0,001
1003,2	0,001
1003,6	0
1004	0
1004,5	0
1004,9	-0
1005,3	-0
1005,7	-0,001
1006,1	-0,001
1006,6	-0,001
1007	-0,001
1007,4	-0,002
1007,8	-0,001
1008,2	-0
1008,6	0,001
1009,1	0
1009,5	0
1009,9	0,001
1010,3	0,001
1010,7	0,001
1011,1	-0,001
1011,6	-0,001
1012	-0,001
1012,4	0
1012,8	-0
1013,2	-0
1013,6	0
1014,1	0,001
1014,5	0,001
1014,9	0,001
1015,3	0,001
1015,7	0
1016,1	0
1016,6	0
1017	0
1017,4	0
1017,8	-0
1018,2	-0,001
1018,6	-0,001
1019,1	-0,002
1019,5	-0,002
1019,9	-0,003
1020,3	-0,003
1020,7	-0,002
1021,1	-0,002
1021,6	-0,002
1022	-0,001
1022,4	-0,001
1022,8	-0,001
1023,2	-0,001
1023,6	-0,002
1024,1	-0,001
1024,5	-0,001
1024,9	-0,002
1025,3	-0,002
1025,7	-0,002
1026,1	-0,001
1026,6	-0,001
1027	-0,002
1027,4	-0,002
1027,8	-0,003
1028,2	-0,003
1028,6	-0,002
1029	-0,002
1029,5	-0,002
1029,9	-0,001
1030,3	-0,001
1030,7	-0,001
1031,1	-0,001
1031,5	-0,002
1032	-0,002
1032,4	-0,003
1032,8	-0,002
1033,2	-0,002
1033,6	-0,003
1034	-0,002
1034,4	-0,002
1034,9	-0,002
1035,3	-0,001
1035,7	-0,002
1036,1	-0,002
1036,5	-0,001
1036,9	-0,001
1037,4	-0,001
1037,8	-0,001
1038,2	-0,001
1038,6	-0,002
1039	-0,002
1039,4	-0,002
1039,8	-0,001
1040,3	-0,001
1040,7	-0,001
1041,1	-0,002
1041,5	-0,002
1041,9	-0,002
1042,3	-0,001
1042,7	-0,002
1043,2	-0,003
1043,6	-0,003
1044	-0,003
1044,4	-0,002
1044,8	-0,001
1045,2	-0,002
1045,6	-0,002
1046,1	-0,002
1046,5	-0,002
1046,9	-0,002
1047,3	-0,003
1047,7	-0,003
1048,1	-0,002
1048,5	-0,003
1049	-0,001
1049,4	-0
1049,8	0,001
1050,2	0,001
1050,6	0,001
1051	0
1051,4	0
1051,9	0
1052,3	0,001
1052,7	-0
1053,1	-0
1053,5	0,001
1053,9	0,001
1054,3	0,002
1054,8	0,001
1055,2	-0
1055,6	0,001
1056	-0,001
1056,4	-0,001
1056,8	-0,001
1057,2	-0,002
1057,6	-0,002
1058,1	-0,001
1058,5	-0,001
1058,9	-0
1059,3	-0,001
1059,7	-0,002
1060,1	-0,001
1060,5	-0,001
1061	-0,001
1061,4	-0,002
1061,8	-0,002
1062,2	-0,002
1062,6	-0,001
1063	-0,001
1063,4	-0,002
1063,8	-0,003
1064,3	-0,002
1064,7	-0,002
1065,1	-0,002
1065,5	-0,004
1065,9	-0,003
1066,3	-0,003
1066,7	-0,004
1067,1	-0,004
1067,6	-0,004
1068	-0,004
1068,4	-0,004
1068,8	-0,004
1069,2	-0,003
1069,6	-0,003
1070	-0,004
1070,4	-0,003
1070,9	-0,003
1071,3	-0,003
1071,7	-0,003
1072,1	-0,003
1072,5	-0,003
1072,9	-0,002
1073,3	-0,002
1073,7	-0,003
1074,2	-0,002
1074,6	-0,003
1075	-0,002
1075,4	-0,003
1075,8	-0,004
1076,2	-0,006
1076,6	-0,005
1077	-0,004
1077,5	-0,003
1077,9	-0,003
1078,3	-0,002
1078,7	-0,001
1079,1	0
1079,5	0,001
1079,9	0
1080,3	-0,001
1080,7	-0,003
1081,2	-0,004
1081,6	-0,003
1082	-0,003
1082,4	-0,003
1082,8	-0,003
1083,2	-0,001
1083,6	-0,001
1084	-0,001
1084,5	-0
1084,9	-0,001
1085,3	-0,001
1085,7	-0,002
1086,1	0
1086,5	-0,001
1086,9	-0
1087,3	-0
1087,7	0,002
1088,2	0,001
1088,6	0,002
1089	0,002
1089,4	0,004
1089,8	0,007
1090,2	0,006
1090,6	0,004
1091	0,007
1091,4	0,008
1091,9	0,006
1092,3	0,012
1092,7	0,008
1093,1	0,003
1093,5	0,007
1093,9	0,006
1094,3	0,005
1094,7	0,001
1095,1	-0,001
1095,5	0,001
1096	-0,004
1096,4	-0,013
1096,8	-0,022
1097,2	-0,028
1097,6	-0,026
1098	-0,033
1098,4	-0,027
1098,8	-0,019
1099,2	-0,012
1099,6	-0,011
1100,1	-0,004
1100,5	0,001
1100,9	0
1101,3	-0,008
1101,7	-0,009
1102,1	-0,013
1102,5	-0,016
1102,9	-0,026
1103,3	-0,033
1103,7	-0,032
1104,2	-0,035
1104,6	-0,025
1105	-0,023
1105,4	-0,02
1105,8	-0,009
1106,2	-0,002
1106,6	-0,007
1107	-0,008
1107,4	-0,042
1107,8	-0,048
1108,3	-0
