Data from Absorbance_19-24-53-813.txt Node
Date: Tue Nov 15 19:24:53 MSK 2022
User: vat
Spectrometer: MAYP114033
Trigger mode: 0
Integration Time (sec): 8,000000E-3
Scans to average: 10
Electric dark correction enabled: true
Nonlinearity correction enabled: false
Boxcar width: 3
XAxis mode: Wavelengths
Number of Pixels in Spectrum: 2068
>>>>>Begin Spectral Data<<<<<
199,4	-0
199,9	0,123
200,4	0,227
200,8	0,206
201,3	0,115
201,8	0,018
202,2	0,02
202,7	0,02
203,2	0,034
203,6	0,017
204,1	0,015
204,6	0,04
205	0,073
205,5	0,084
206	0,077
206,4	0,102
206,9	0,119
207,4	0,108
207,8	0,081
208,3	0,056
208,8	0,045
209,2	0,065
209,7	0,039
210,2	0,031
210,6	0,035
211,1	0,052
211,5	0,061
212	0,057
212,5	0,048
212,9	0,066
213,4	0,059
213,9	0,059
214,3	0,033
214,8	0,027
215,3	0,045
215,7	0,025
216,2	0,005
216,7	0,029
217,1	0,034
217,6	0,045
218,1	0,059
218,5	0,032
219	0,067
219,5	0,066
219,9	0,048
220,4	0,027
220,9	0,038
221,3	0,03
221,8	0,04
222,3	0,027
222,7	0,028
223,2	0,034
223,6	0,066
224,1	0,045
224,6	0,039
225	0,043
225,5	0,058
226	0,074
226,4	0,043
226,9	0,043
227,4	0,086
227,8	0,077
228,3	0,072
228,8	0,064
229,2	0,051
229,7	0,064
230,2	0,043
230,6	0,029
231,1	0,049
231,5	0,059
232	0,071
232,5	0,069
232,9	0,107
233,4	0,122
233,9	0,09
234,3	0,071
234,8	0,04
235,3	0,035
235,7	0,023
236,2	-0,011
236,7	-0,028
237,1	-0,019
237,6	-0,002
238,1	0,043
238,5	0,041
239	0,054
239,4	0,068
239,9	0,081
240,4	0,07
240,8	0,077
241,3	0,048
241,8	0,046
242,2	0,047
242,7	0,035
243,2	0,038
243,6	0,062
244,1	0,066
244,6	0,074
245	0,086
245,5	0,086
245,9	0,103
246,4	0,076
246,9	0,07
247,3	0,063
247,8	0,066
248,3	0,038
248,7	0,047
249,2	0,02
249,7	0,041
250,1	0,049
250,6	0,054
251	0,057
251,5	0,07
252	0,071
252,4	0,083
252,9	0,086
253,4	0,075
253,8	0,08
254,3	0,081
254,8	0,08
255,2	0,082
255,7	0,084
256,1	0,083
256,6	0,087
257,1	0,083
257,5	0,083
258	0,083
258,5	0,082
258,9	0,079
259,4	0,076
259,9	0,075
260,3	0,075
260,8	0,074
261,2	0,071
261,7	0,07
262,2	0,069
262,6	0,069
263,1	0,07
263,6	0,069
264	0,067
264,5	0,068
264,9	0,067
265,4	0,066
265,9	0,066
266,3	0,064
266,8	0,064
267,3	0,063
267,7	0,063
268,2	0,063
268,7	0,062
269,1	0,061
269,6	0,06
270	0,059
270,5	0,058
271	0,056
271,4	0,055
271,9	0,055
272,4	0,055
272,8	0,056
273,3	0,055
273,7	0,053
274,2	0,054
274,7	0,053
275,1	0,053
275,6	0,052
276,1	0,051
276,5	0,052
277	0,053
277,4	0,053
277,9	0,052
278,4	0,051
278,8	0,05
279,3	0,05
279,8	0,05
280,2	0,049
280,7	0,048
281,1	0,049
281,6	0,048
282,1	0,048
282,5	0,047
283	0,046
283,4	0,045
283,9	0,044
284,4	0,043
284,8	0,042
285,3	0,043
285,8	0,043
286,2	0,043
286,7	0,043
287,1	0,044
287,6	0,043
288,1	0,043
288,5	0,043
289	0,043
289,5	0,042
289,9	0,041
290,4	0,041
290,8	0,042
291,3	0,042
291,8	0,042
292,2	0,042
292,7	0,042
293,1	0,043
293,6	0,042
294,1	0,042
294,5	0,041
295	0,042
295,5	0,042
295,9	0,041
296,4	0,042
296,8	0,042
297,3	0,042
297,8	0,042
298,2	0,042
298,7	0,042
299,1	0,042
299,6	0,041
300,1	0,042
300,5	0,042
301	0,043
301,5	0,043
301,9	0,043
302,4	0,043
302,8	0,045
303,3	0,046
303,8	0,046
304,2	0,047
304,7	0,047
305,1	0,049
305,6	0,049
306,1	0,05
306,5	0,051
307	0,052
307,4	0,053
307,9	0,054
308,4	0,056
308,8	0,057
309,3	0,057
309,8	0,058
310,2	0,059
310,7	0,061
311,1	0,062
311,6	0,062
312,1	0,064
312,5	0,065
313	0,066
313,4	0,067
313,9	0,069
314,4	0,07
314,8	0,071
315,3	0,073
315,7	0,075
316,2	0,077
316,7	0,078
317,1	0,079
317,6	0,08
318	0,081
318,5	0,082
319	0,083
319,4	0,085
319,9	0,087
320,3	0,088
320,8	0,089
321,3	0,09
321,7	0,091
322,2	0,092
322,6	0,093
323,1	0,094
323,6	0,095
324	0,097
324,5	0,099
324,9	0,099
325,4	0,101
325,9	0,102
326,3	0,102
326,8	0,103
327,2	0,104
327,7	0,105
328,2	0,106
328,6	0,107
329,1	0,107
329,5	0,109
330	0,11
330,5	0,111
330,9	0,112
331,4	0,112
331,8	0,113
332,3	0,113
332,8	0,114
333,2	0,114
333,7	0,113
334,1	0,113
334,6	0,114
335,1	0,114
335,5	0,114
336	0,114
336,4	0,113
336,9	0,113
337,4	0,112
337,8	0,111
338,3	0,11
338,7	0,11
339,2	0,108
339,7	0,107
340,1	0,106
340,6	0,105
341	0,104
341,5	0,102
342	0,1
342,4	0,099
342,9	0,098
343,3	0,096
343,8	0,094
344,2	0,093
344,7	0,091
345,2	0,089
345,6	0,087
346,1	0,085
346,5	0,083
347	0,082
347,5	0,08
347,9	0,078
348,4	0,076
348,8	0,074
349,3	0,072
349,8	0,07
350,2	0,068
350,7	0,066
351,1	0,065
351,6	0,063
352	0,061
352,5	0,06
353	0,058
353,4	0,056
353,9	0,055
354,3	0,054
354,8	0,053
355,3	0,052
355,7	0,049
356,2	0,049
356,6	0,048
357,1	0,046
357,5	0,045
358	0,044
358,5	0,043
358,9	0,043
359,4	0,042
359,8	0,042
360,3	0,041
360,8	0,041
361,2	0,041
361,7	0,041
362,1	0,04
362,6	0,039
363	0,038
363,5	0,038
364	0,037
364,4	0,036
364,9	0,035
365,3	0,036
365,8	0,036
366,3	0,036
366,7	0,035
367,2	0,035
367,6	0,036
368,1	0,035
368,5	0,035
369	0,035
369,5	0,033
369,9	0,033
370,4	0,032
370,8	0,031
371,3	0,032
371,7	0,031
372,2	0,03
372,7	0,03
373,1	0,03
373,6	0,029
374	0,03
374,5	0,029
374,9	0,029
375,4	0,028
375,9	0,029
376,3	0,029
376,8	0,03
377,2	0,029
377,7	0,029
378,2	0,03
378,6	0,029
379,1	0,029
379,5	0,028
380	0,028
380,4	0,029
380,9	0,029
381,4	0,028
381,8	0,028
382,3	0,028
382,7	0,027
383,2	0,026
383,6	0,026
384,1	0,025
384,6	0,026
385	0,026
385,5	0,026
385,9	0,027
386,4	0,026
386,8	0,026
387,3	0,026
387,7	0,027
388,2	0,027
388,7	0,026
389,1	0,025
389,6	0,026
390	0,026
390,5	0,026
390,9	0,026
391,4	0,026
391,9	0,026
392,3	0,027
392,8	0,027
393,2	0,027
393,7	0,026
394,1	0,026
394,6	0,026
395,1	0,026
395,5	0,025
396	0,024
396,4	0,024
396,9	0,025
397,3	0,023
397,8	0,023
398,2	0,023
398,7	0,023
399,2	0,023
399,6	0,023
400,1	0,023
400,5	0,023
401	0,023
401,4	0,023
401,9	0,022
402,4	0,022
402,8	0,022
403,3	0,022
403,7	0,022
404,2	0,022
404,6	0,022
405,1	0,023
405,5	0,023
406	0,023
406,5	0,024
406,9	0,023
407,4	0,023
407,8	0,022
408,3	0,023
408,7	0,023
409,2	0,022
409,6	0,022
410,1	0,022
410,6	0,023
411	0,023
411,5	0,023
411,9	0,022
412,4	0,023
412,8	0,023
413,3	0,022
413,7	0,021
414,2	0,021
414,7	0,021
415,1	0,021
415,6	0,02
416	0,021
416,5	0,021
416,9	0,021
417,4	0,021
417,8	0,02
418,3	0,02
418,8	0,021
419,2	0,021
419,7	0,021
420,1	0,021
420,6	0,021
421	0,021
421,5	0,021
421,9	0,021
422,4	0,02
422,8	0,02
423,3	0,02
423,8	0,02
424,2	0,02
424,7	0,02
425,1	0,019
425,6	0,019
426	0,019
426,5	0,019
426,9	0,018
427,4	0,019
427,9	0,018
428,3	0,018
428,8	0,017
429,2	0,017
429,7	0,018
430,1	0,018
430,6	0,017
431	0,017
431,5	0,017
431,9	0,018
432,4	0,017
432,8	0,017
433,3	0,016
433,8	0,016
434,2	0,017
434,7	0,016
435,1	0,017
435,6	0,017
436	0,017
436,5	0,017
436,9	0,018
437,4	0,018
437,8	0,017
438,3	0,016
438,8	0,017
439,2	0,017
439,7	0,017
440,1	0,017
440,6	0,017
441	0,017
441,5	0,017
441,9	0,018
442,4	0,017
442,8	0,017
443,3	0,016
443,7	0,016
444,2	0,016
444,7	0,016
445,1	0,015
445,6	0,015
446	0,015
446,5	0,015
446,9	0,014
447,4	0,014
447,8	0,014
448,3	0,014
448,7	0,014
449,2	0,014
449,6	0,014
450,1	0,014
450,6	0,014
451	0,014
451,5	0,013
451,9	0,013
452,4	0,013
452,8	0,014
453,3	0,014
453,7	0,013
454,2	0,013
454,6	0,013
455,1	0,013
455,5	0,014
456	0,014
456,4	0,014
456,9	0,015
457,3	0,015
457,8	0,014
458,3	0,014
458,7	0,013
459,2	0,012
459,6	0,012
460,1	0,013
460,5	0,013
461	0,013
461,4	0,013
461,9	0,013
462,3	0,014
462,8	0,014
463,2	0,013
463,7	0,012
464,1	0,013
464,6	0,014
465	0,014
465,5	0,014
466	0,015
466,4	0,015
466,9	0,015
467,3	0,015
467,8	0,014
468,2	0,013
468,7	0,013
469,1	0,012
469,6	0,011
470	0,011
470,5	0,011
470,9	0,011
471,4	0,011
471,8	0,011
472,3	0,011
472,7	0,011
473,2	0,012
473,6	0,012
474,1	0,012
474,5	0,013
475	0,013
475,4	0,013
475,9	0,013
476,4	0,014
476,8	0,012
477,3	0,012
477,7	0,012
478,2	0,012
478,6	0,012
479,1	0,012
479,5	0,012
480	0,013
480,4	0,012
480,9	0,012
481,3	0,012
481,8	0,013
482,2	0,012
482,7	0,011
483,1	0,012
483,6	0,012
484	0,012
484,5	0,011
484,9	0,011
485,4	0,011
485,8	0,011
486,3	0,011
486,7	0,011
487,2	0,012
487,6	0,012
488,1	0,012
488,5	0,013
489	0,012
489,4	0,012
489,9	0,012
490,4	0,011
490,8	0,011
491,3	0,011
491,7	0,011
492,2	0,011
492,6	0,011
493,1	0,011
493,5	0,011
494	0,011
494,4	0,011
494,9	0,01
495,3	0,01
495,8	0,01
496,2	0,01
496,7	0,011
497,1	0,011
497,6	0,012
498	0,012
498,5	0,011
498,9	0,012
499,4	0,012
499,8	0,013
500,3	0,012
500,7	0,012
501,2	0,012
501,6	0,013
502,1	0,013
502,5	0,012
503	0,011
503,4	0,011
503,9	0,011
504,3	0,011
504,8	0,011
505,2	0,01
505,7	0,01
506,1	0,01
506,6	0,01
507	0,01
507,5	0,009
507,9	0,009
508,4	0,01
508,8	0,009
509,3	0,01
509,7	0,011
510,2	0,01
510,6	0,01
511,1	0,01
511,5	0,01
512	0,01
512,4	0,01
512,9	0,01
513,3	0,011
513,8	0,011
514,2	0,011
514,7	0,01
515,1	0,011
515,6	0,011
516	0,01
516,5	0,01
516,9	0,009
517,4	0,009
517,8	0,009
518,3	0,008
518,7	0,009
519,2	0,009
519,6	0,009
520,1	0,009
520,5	0,009
521	0,009
521,4	0,009
521,9	0,009
522,3	0,01
522,8	0,01
523,2	0,011
523,7	0,011
524,1	0,01
524,6	0,011
525	0,011
525,5	0,01
525,9	0,011
526,4	0,01
526,8	0,011
527,3	0,011
527,7	0,011
528,2	0,01
528,6	0,01
529,1	0,01
529,5	0,009
530	0,009
530,4	0,009
530,9	0,009
531,3	0,01
531,8	0,009
532,2	0,01
532,6	0,01
533,1	0,009
533,5	0,01
534	0,01
534,4	0,009
534,9	0,01
535,3	0,009
535,8	0,01
536,2	0,01
536,7	0,01
537,1	0,011
537,6	0,011
538	0,01
538,5	0,01
538,9	0,011
539,4	0,011
539,8	0,01
540,3	0,01
540,7	0,011
541,2	0,01
541,6	0,01
542,1	0,01
542,5	0,011
543	0,011
543,4	0,01
543,9	0,01
544,3	0,01
544,8	0,01
545,2	0,01
545,7	0,01
546,1	0,009
546,5	0,009
547	0,009
547,4	0,01
547,9	0,01
548,3	0,009
548,8	0,009
549,2	0,008
549,7	0,008
550,1	0,008
550,6	0,008
551	0,008
551,5	0,008
551,9	0,008
552,4	0,009
552,8	0,009
553,3	0,008
553,7	0,008
554,2	0,009
554,6	0,008
555,1	0,009
555,5	0,008
555,9	0,008
556,4	0,008
556,8	0,008
557,3	0,008
557,7	0,009
558,2	0,008
558,6	0,009
559,1	0,008
559,5	0,008
560	0,008
560,4	0,008
560,9	0,007
561,3	0,008
561,8	0,008
562,2	0,009
562,7	0,009
563,1	0,009
563,6	0,009
564	0,009
564,4	0,008
564,9	0,008
565,3	0,008
565,8	0,009
566,2	0,009
566,7	0,008
567,1	0,008
567,6	0,008
568	0,008
568,5	0,008
568,9	0,008
569,4	0,008
569,8	0,008
570,3	0,008
570,7	0,008
571,1	0,008
571,6	0,008
572	0,008
572,5	0,008
572,9	0,008
573,4	0,008
573,8	0,007
574,3	0,007
574,7	0,008
575,2	0,007
575,6	0,007
576,1	0,008
576,5	0,008
576,9	0,008
577,4	0,008
577,8	0,007
578,3	0,008
578,7	0,008
579,2	0,008
579,6	0,007
580,1	0,007
580,5	0,007
581	0,007
581,4	0,007
581,9	0,007
582,3	0,007
582,7	0,007
583,2	0,008
583,6	0,008
584,1	0,007
584,5	0,008
585	0,007
585,4	0,007
585,9	0,007
586,3	0,007
586,8	0,007
587,2	0,007
587,6	0,007
588,1	0,008
588,5	0,008
589	0,008
589,4	0,008
589,9	0,008
590,3	0,008
590,8	0,007
591,2	0,007
591,7	0,007
592,1	0,007
592,5	0,007
593	0,007
593,4	0,007
593,9	0,007
594,3	0,007
594,8	0,007
595,2	0,007
595,7	0,007
596,1	0,007
596,6	0,007
597	0,006
597,4	0,006
597,9	0,007
598,3	0,007
598,8	0,007
599,2	0,007
599,7	0,007
600,1	0,007
600,6	0,007
601	0,007
601,4	0,007
601,9	0,007
602,3	0,007
602,8	0,007
603,2	0,006
603,7	0,006
604,1	0,006
604,6	0,006
605	0,006
605,4	0,006
605,9	0,007
606,3	0,007
606,8	0,007
607,2	0,007
607,7	0,007
608,1	0,007
608,6	0,007
609	0,006
609,4	0,006
609,9	0,006
610,3	0,006
610,8	0,006
611,2	0,007
611,7	0,007
612,1	0,007
612,6	0,007
613	0,007
613,4	0,006
613,9	0,007
614,3	0,006
614,8	0,006
615,2	0,006
615,7	0,006
616,1	0,006
616,6	0,007
617	0,007
617,4	0,006
617,9	0,006
618,3	0,006
618,8	0,006
619,2	0,006
619,7	0,006
620,1	0,005
620,5	0,006
621	0,006
621,4	0,005
621,9	0,006
622,3	0,006
622,8	0,005
623,2	0,005
623,6	0,005
624,1	0,006
624,5	0,006
625	0,006
625,4	0,005
625,9	0,005
626,3	0,006
626,8	0,006
627,2	0,006
627,6	0,006
628,1	0,006
628,5	0,006
629	0,006
629,4	0,006
629,9	0,006
630,3	0,006
630,7	0,005
631,2	0,005
631,6	0,005
632,1	0,004
632,5	0,005
633	0,004
633,4	0,004
633,8	0,005
634,3	0,005
634,7	0,005
635,2	0,005
635,6	0,005
636,1	0,005
636,5	0,005
636,9	0,005
637,4	0,005
637,8	0,005
638,3	0,005
638,7	0,005
639,2	0,005
639,6	0,005
640	0,005
640,5	0,005
640,9	0,005
641,4	0,005
641,8	0,004
642,2	0,004
642,7	0,004
643,1	0,004
643,6	0,004
644	0,003
644,5	0,003
644,9	0,003
645,3	0,003
645,8	0,003
646,2	0,003
646,7	0,004
647,1	0,004
647,6	0,004
648	0,005
648,4	0,004
648,9	0,004
649,3	0,004
649,8	0,003
650,2	0,003
650,6	0,003
651,1	0,003
651,5	0,004
652	0,004
652,4	0,004
652,9	0,005
653,3	0,004
653,7	0,004
654,2	0,004
654,6	0,004
655,1	0,003
655,5	0,002
655,9	0,003
656,4	0,003
656,8	0,003
657,3	0,003
657,7	0,003
658,2	0,003
658,6	0,004
659	0,004
659,5	0,004
659,9	0,004
660,4	0,004
660,8	0,004
661,2	0,004
661,7	0,003
662,1	0,003
662,6	0,003
663	0,002
663,4	0,003
663,9	0,003
664,3	0,002
664,8	0,003
665,2	0,003
665,6	0,003
666,1	0,003
666,5	0,003
667	0,003
667,4	0,003
667,9	0,002
668,3	0,002
668,7	0,002
669,2	0,002
669,6	0,002
670,1	0,002
670,5	0,003
670,9	0,003
671,4	0,003
671,8	0,003
672,3	0,003
672,7	0,003
673,1	0,003
673,6	0,003
674	0,003
674,5	0,003
674,9	0,004
675,3	0,003
675,8	0,003
676,2	0,003
676,7	0,002
677,1	0,002
677,5	0,002
678	0,002
678,4	0,002
678,9	0,002
679,3	0,002
679,7	0,002
680,2	0,002
680,6	0,002
681,1	0,002
681,5	0,003
681,9	0,003
682,4	0,003
682,8	0,003
683,3	0,003
683,7	0,003
684,1	0,003
684,6	0,003
685	0,003
685,5	0,002
685,9	0,002
686,3	0,002
686,8	0,002
687,2	0,002
687,7	0,002
688,1	0,002
688,5	0,002
689	0,002
689,4	0,002
689,9	0,002
690,3	0,002
690,7	0,002
691,2	0,002
691,6	0,002
692	0,002
692,5	0,002
692,9	0,002
693,4	0,002
693,8	0,002
694,2	0,002
694,7	0,002
695,1	0,002
695,6	0,002
696	0,002
696,4	0,002
696,9	0,002
697,3	0,002
697,8	0,002
698,2	0,002
698,6	0,002
699,1	0,001
699,5	0,001
699,9	0,001
700,4	0,001
700,8	0,001
701,3	0,001
701,7	0,001
702,1	0,002
702,6	0,002
703	0,001
703,5	0,001
703,9	0,001
704,3	0,001
704,8	0,001
705,2	-0
705,6	0
706,1	0
706,5	0,001
707	0,001
707,4	0,001
707,8	0
708,3	0,001
708,7	0,001
709,2	0,001
709,6	0,001
710	0,001
710,5	0,001
710,9	0,001
711,3	0,001
711,8	0,001
712,2	0,001
712,7	0,001
713,1	0,001
713,5	0,001
714	0,001
714,4	0,002
714,8	0,001
715,3	0,001
715,7	0,002
716,2	0,001
716,6	0,001
717	0,001
717,5	0,001
717,9	0,001
718,3	0,001
718,8	0,001
719,2	0,001
719,7	0,001
720,1	0,001
720,5	0,001
721	0,001
721,4	0,001
721,8	0,001
722,3	0,001
722,7	0,001
723,2	0,001
723,6	0,001
724	0,001
724,5	0,001
724,9	0,001
725,3	0,001
725,8	0,001
726,2	0
726,7	0,001
727,1	0,001
727,5	0
728	0
728,4	0
728,8	0
729,3	0,001
729,7	0
730,1	-0
730,6	-0
731	-0
731,5	-0
731,9	-0
732,3	-0
732,8	-0
733,2	0
733,6	0
734,1	0,001
734,5	0,001
734,9	0,001
735,4	0,001
735,8	0,001
736,3	0
736,7	0,001
737,1	0
737,6	0,001
738	0,001
738,4	0
738,9	0
739,3	0,001
739,7	0
740,2	0
740,6	0
741,1	-0
741,5	0
741,9	-0
742,4	-0
742,8	-0
743,2	0
743,7	-0
744,1	0
744,5	0
745	0,001
745,4	0,001
745,8	0,001
746,3	0,001
746,7	0,001
747,2	0,001
747,6	0
748	-0
748,5	-0
748,9	-0,001
749,3	-0
749,8	-0
750,2	-0
750,6	-0
751,1	0
751,5	0
751,9	0,001
752,4	0
752,8	0,001
753,3	0,001
753,7	0
754,1	0
754,6	0
755	-0
755,4	-0
755,9	-0
756,3	-0
756,7	0
757,2	-0
757,6	-0
758	-0
758,5	0
758,9	-0
759,3	-0
759,8	-0
760,2	0
760,6	0
761,1	0,001
761,5	0
761,9	0
762,4	0
762,8	0
763,3	-0
763,7	0
764,1	-0
764,6	-0
765	-0
765,4	-0
765,9	0
766,3	0
766,7	-0
767,2	-0
767,6	-0
768	-0
768,5	-0
768,9	-0
769,3	0
769,8	0
770,2	0
770,6	0,001
771,1	0,001
771,5	0
771,9	0
772,4	-0
772,8	-0
773,2	-0
773,7	-0,001
774,1	-0,001
774,5	-0,001
775	-0
775,4	-0
775,8	-0,001
776,3	-0,001
776,7	-0,001
777,1	-0
777,6	-0,001
778	-0,001
778,4	-0,001
778,9	-0,001
779,3	-0,001
779,7	-0,001
780,2	-0,001
780,6	-0,001
781	-0,001
781,5	-0
781,9	-0
782,3	-0
782,8	-0
783,2	-0
783,6	-0
784,1	-0
784,5	-0
784,9	-0,001
785,4	-0,001
785,8	-0,001
786,2	-0,001
786,7	-0,001
787,1	-0,001
787,5	-0,001
788	-0,001
788,4	-0
788,8	-0
789,3	0
789,7	0
790,1	-0
790,6	-0
791	-0
791,4	-0
791,9	-0
792,3	-0
792,7	-0
793,2	0
793,6	0
794	0
794,5	0,001
794,9	0
795,3	0
795,8	-0
796,2	-0
796,6	-0,001
797,1	-0,001
797,5	-0,001
797,9	-0,001
798,4	-0,001
798,8	-0,001
799,2	-0,001
799,7	-0,001
800,1	-0,001
800,5	-0,001
801	-0,001
801,4	-0,001
801,8	-0,001
802,2	-0,001
802,7	-0,001
803,1	-0,001
803,5	-0,001
804	-0,001
804,4	-0,001
804,8	-0,001
805,3	-0
805,7	-0,001
806,1	-0
806,6	-0
807	0
807,4	0
807,9	0
808,3	-0
808,7	-0
809,2	-0
809,6	-0
810	-0,001
810,4	-0,001
810,9	-0,001
811,3	-0
811,7	-0
812,2	-0
812,6	-0,001
813	-0,001
813,5	-0,001
813,9	-0,001
814,3	-0,001
814,8	-0,001
815,2	-0,001
815,6	-0,001
816,1	-0,001
816,5	-0,001
816,9	-0,001
817,3	-0
817,8	-0,001
818,2	-0,001
818,6	-0,001
819,1	-0,001
819,5	-0
819,9	-0,001
820,4	-0,001
820,8	-0,001
821,2	-0,001
821,7	-0
822,1	-0,001
822,5	-0,001
822,9	-0
823,4	-0
823,8	-0,001
824,2	-0
824,7	-0
825,1	-0
825,5	-0
826	-0
826,4	-0
826,8	-0,001
827,3	-0,001
827,7	-0,001
828,1	-0,001
828,5	-0,001
829	-0,001
829,4	-0,001
829,8	-0,001
830,3	-0,001
830,7	-0,001
831,1	-0,001
831,6	-0
832	-0,001
832,4	-0,001
832,8	-0,001
833,3	-0,001
833,7	-0,001
834,1	-0,001
834,6	-0,001
835	-0,001
835,4	-0,001
835,8	-0,001
836,3	-0,001
836,7	-0,001
837,1	-0,001
837,6	-0,001
838	-0,001
838,4	-0,001
838,9	-0,001
839,3	-0,001
839,7	-0,001
840,1	-0,001
840,6	-0,001
841	-0
841,4	-0
841,9	-0
842,3	-0
842,7	0
843,1	0
843,6	0
844	0
844,4	-0
844,9	-0
845,3	-0,001
845,7	-0,001
846,2	-0,001
846,6	-0,001
847	-0,001
847,4	-0,002
847,9	-0,001
848,3	-0,001
848,7	-0,001
849,2	-0,001
849,6	-0,001
850	-0,001
850,4	-0,001
850,9	-0,001
851,3	-0,001
851,7	-0,001
852,2	-0,002
852,6	-0,001
853	-0,002
853,4	-0,001
853,9	-0,001
854,3	-0,001
854,7	-0,001
855,2	-0,001
855,6	-0,001
856	-0,001
856,4	-0,001
856,9	-0,001
857,3	-0,001
857,7	-0,001
858,2	-0,001
858,6	-0,001
859	-0,001
859,4	-0,002
859,9	-0,002
860,3	-0,002
860,7	-0,002
861,1	-0,002
861,6	-0,002
862	-0,002
862,4	-0,002
862,9	-0,003
863,3	-0,003
863,7	-0,003
864,1	-0,003
864,6	-0,003
865	-0,002
865,4	-0,002
865,9	-0,001
866,3	-0,001
866,7	-0,001
867,1	-0,001
867,6	-0,001
868	-0,002
868,4	-0,002
868,8	-0,002
869,3	-0,002
869,7	-0,002
870,1	-0,002
870,6	-0,002
871	-0,001
871,4	-0,001
871,8	-0,001
872,3	-0,001
872,7	-0,001
873,1	-0,002
873,5	-0,002
874	-0,002
874,4	-0,002
874,8	-0,002
875,3	-0,002
875,7	-0,001
876,1	-0,001
876,5	-0,001
877	-0,001
877,4	-0,001
877,8	-0,001
878,2	-0,002
878,7	-0,001
879,1	-0,002
879,5	-0,001
879,9	-0,002
880,4	-0,002
880,8	-0,002
881,2	-0,002
881,7	-0,002
882,1	-0,002
882,5	-0,002
882,9	-0,002
883,4	-0,001
883,8	-0,001
884,2	-0,001
884,6	-0,001
885,1	-0,001
885,5	-0,001
885,9	-0,001
886,3	-0,001
886,8	-0
887,2	-0
887,6	-0,001
888	-0,001
888,5	-0,001
888,9	-0,001
889,3	-0,001
889,8	-0,002
890,2	-0,002
890,6	-0,002
891	-0,002
891,5	-0,002
891,9	-0,002
892,3	-0,002
892,7	-0,002
893,2	-0,002
893,6	-0,002
894	-0,002
894,4	-0,002
894,9	-0,002
895,3	-0,002
895,7	-0,002
896,1	-0,002
896,6	-0,002
897	-0,002
897,4	-0,003
897,8	-0,002
898,3	-0,002
898,7	-0,002
899,1	-0,002
899,5	-0,002
900	-0,002
900,4	-0,002
900,8	-0,002
901,2	-0,002
901,7	-0,002
902,1	-0,002
902,5	-0,002
902,9	-0,002
903,4	-0,002
903,8	-0,002
904,2	-0,002
904,6	-0,002
905,1	-0,002
905,5	-0,002
905,9	-0,002
906,3	-0,002
906,8	-0,002
907,2	-0,002
907,6	-0,001
908	-0,001
908,5	-0,001
908,9	-0,001
909,3	-0,001
909,7	-0,001
910,2	-0,001
910,6	-0,002
911	-0,001
911,4	-0,002
911,9	-0,002
912,3	-0,002
912,7	-0,002
913,1	-0,002
913,6	-0,002
914	-0,002
914,4	-0,002
914,8	-0,002
915,3	-0,002
915,7	-0,002
916,1	-0,002
916,5	-0,002
916,9	-0,002
917,4	-0,002
917,8	-0,002
918,2	-0,002
918,6	-0,002
919,1	-0,002
919,5	-0,002
919,9	-0,002
920,3	-0,001
920,8	-0,001
921,2	-0,001
921,6	-0,001
922	-0,001
922,5	-0,001
922,9	-0,001
923,3	-0,001
923,7	-0,002
924,2	-0,002
924,6	-0,002
925	-0,001
925,4	-0,002
925,8	-0,001
926,3	-0,001
926,7	-0,001
927,1	-0,001
927,5	-0,001
928	-0,002
928,4	-0,001
928,8	-0,001
929,2	-0,001
929,7	-0,001
930,1	-0,001
930,5	-0
930,9	-0
931,3	-0
931,8	-0
932,2	0
932,6	0
933	0,001
933,5	0,001
933,9	0,001
934,3	0,001
934,7	0,001
935,2	0
935,6	0
936	-0
936,4	-0
936,8	-0
937,3	-0
937,7	-0,001
938,1	-0,001
938,5	-0
939	-0
939,4	-0
939,8	-0
940,2	-0
940,6	0,001
941,1	0
941,5	-0
941,9	0
942,3	0,001
942,8	0,001
943,2	0,001
943,6	0,001
944	0,001
944,4	0,001
944,9	0
945,3	-0
945,7	0
946,1	0,001
946,6	0
947	0,001
947,4	0,001
947,8	0,001
948,2	0,001
948,7	0,001
949,1	0,001
949,5	0,001
949,9	0
950,3	0,001
950,8	0,001
951,2	0,001
951,6	0,002
952	0,002
952,5	0,002
952,9	0,003
953,3	0,002
953,7	0,002
954,1	0,003
954,6	0,002
955	0,002
955,4	0,002
955,8	0,002
956,2	0,003
956,7	0,003
957,1	0,003
957,5	0,003
957,9	0,003
958,3	0,003
958,8	0,004
959,2	0,003
959,6	0,003
960	0,004
960,5	0,004
960,9	0,004
961,3	0,004
961,7	0,004
962,1	0,005
962,6	0,005
963	0,004
963,4	0,004
963,8	0,004
964,2	0,003
964,7	0,003
965,1	0,003
965,5	0,004
965,9	0,004
966,3	0,004
966,8	0,004
967,2	0,004
967,6	0,004
968	0,004
968,4	0,003
968,9	0,002
969,3	0,003
969,7	0,003
970,1	0,002
970,5	0,002
971	0,003
971,4	0,003
971,8	0,003
972,2	0,003
972,6	0,003
973,1	0,003
973,5	0,003
973,9	0,002
974,3	0,002
974,7	0,002
975,2	0,002
975,6	0,003
976	0,002
976,4	0,002
976,8	0,002
977,3	0,002
977,7	0,001
978,1	0,002
978,5	0,001
978,9	0,001
979,4	0,001
979,8	0
980,2	0
980,6	0,001
981	0
981,5	0
981,9	-0,001
982,3	-0
982,7	-0,001
983,1	-0
983,6	-0
984	0
984,4	0
984,8	0,001
985,2	0,001
985,6	0,001
986,1	0,001
986,5	0,001
986,9	-0
987,3	-0,001
987,7	-0,001
988,2	-0
988,6	-0
989	-0,001
989,4	-0,001
989,8	-0
990,3	0
990,7	0
991,1	-0
991,5	-0
991,9	-0
992,3	-0
992,8	-0
993,2	-0,001
993,6	-0,001
994	-0,001
994,4	-0,001
994,9	-0,001
995,3	-0
995,7	-0
996,1	-0
996,5	-0,001
996,9	-0,001
997,4	-0,002
997,8	-0,002
998,2	-0,003
998,6	-0,003
999	-0,002
999,5	-0,003
999,9	-0,002
1000,3	-0,002
1000,7	-0,002
1001,1	-0,002
1001,5	-0,002
1002	-0,003
1002,4	-0,003
1002,8	-0,003
1003,2	-0,003
1003,6	-0,004
1004	-0,003
1004,5	-0,003
1004,9	-0,003
1005,3	-0,004
1005,7	-0,004
1006,1	-0,004
1006,6	-0,003
1007	-0,004
1007,4	-0,003
1007,8	-0,003
1008,2	-0,002
1008,6	-0,001
1009,1	-0,001
1009,5	-0,002
1009,9	-0,001
1010,3	-0,001
1010,7	-0,002
1011,1	-0,003
1011,6	-0,003
1012	-0,003
1012,4	-0,002
1012,8	-0,003
1013,2	-0,003
1013,6	-0,003
1014,1	-0,003
1014,5	-0,003
1014,9	-0,003
1015,3	-0,003
1015,7	-0,003
1016,1	-0,003
1016,6	-0,004
1017	-0,004
1017,4	-0,004
1017,8	-0,003
1018,2	-0,004
1018,6	-0,004
1019,1	-0,004
1019,5	-0,004
1019,9	-0,004
1020,3	-0,004
1020,7	-0,004
1021,1	-0,003
1021,6	-0,003
1022	-0,002
1022,4	-0,002
1022,8	-0,002
1023,2	-0,003
1023,6	-0,003
1024,1	-0,004
1024,5	-0,004
1024,9	-0,005
1025,3	-0,005
1025,7	-0,005
1026,1	-0,004
1026,6	-0,004
1027	-0,004
1027,4	-0,004
1027,8	-0,003
1028,2	-0,004
1028,6	-0,003
1029	-0,004
1029,5	-0,004
1029,9	-0,003
1030,3	-0,003
1030,7	-0,003
1031,1	-0,002
1031,5	-0,003
1032	-0,003
1032,4	-0,004
1032,8	-0,003
1033,2	-0,004
1033,6	-0,004
1034	-0,004
1034,4	-0,005
1034,9	-0,005
1035,3	-0,004
1035,7	-0,005
1036,1	-0,005
1036,5	-0,004
1036,9	-0,003
1037,4	-0,002
1037,8	-0,002
1038,2	-0,002
1038,6	-0,002
1039	-0,003
1039,4	-0,003
1039,8	-0,003
1040,3	-0,004
1040,7	-0,004
1041,1	-0,004
1041,5	-0,003
1041,9	-0,003
1042,3	-0,002
1042,7	-0,003
1043,2	-0,003
1043,6	-0,002
1044	-0,002
1044,4	-0,003
1044,8	-0,002
1045,2	-0,003
1045,6	-0,002
1046,1	-0,003
1046,5	-0,004
1046,9	-0,004
1047,3	-0,003
1047,7	-0,004
1048,1	-0,004
1048,5	-0,004
1049	-0,002
1049,4	-0,003
1049,8	-0,002
1050,2	-0,002
1050,6	-0,003
1051	-0,003
1051,4	-0,004
1051,9	-0,003
1052,3	-0,002
1052,7	-0,003
1053,1	-0,002
1053,5	-0,001
1053,9	-0,001
1054,3	-0,001
1054,8	-0,001
1055,2	-0,002
1055,6	-0,003
1056	-0,004
1056,4	-0,003
1056,8	-0,003
1057,2	-0,003
1057,6	-0,003
1058,1	-0,003
1058,5	-0,002
1058,9	-0,001
1059,3	-0,001
1059,7	-0,001
1060,1	-0,002
1060,5	-0,003
1061	-0,002
1061,4	-0,002
1061,8	-0,003
1062,2	-0,003
1062,6	-0,003
1063	-0,003
1063,4	-0,002
1063,8	-0,003
1064,3	-0,003
1064,7	-0,003
1065,1	-0,002
1065,5	-0,004
1065,9	-0,004
1066,3	-0,005
1066,7	-0,006
1067,1	-0,006
1067,6	-0,007
1068	-0,006
1068,4	-0,005
1068,8	-0,005
1069,2	-0,004
1069,6	-0,004
1070	-0,003
1070,4	-0,003
1070,9	-0,003
1071,3	-0,005
1071,7	-0,004
1072,1	-0,005
1072,5	-0,005
1072,9	-0,004
1073,3	-0,004
1073,7	-0,004
1074,2	-0,003
1074,6	-0,004
1075	-0,003
1075,4	-0,003
1075,8	-0,004
1076,2	-0,005
1076,6	-0,004
1077	-0,003
1077,5	-0,003
1077,9	-0,002
1078,3	-0,001
1078,7	-0,001
1079,1	-0
1079,5	-0,001
1079,9	-0,001
1080,3	-0,002
1080,7	-0,004
1081,2	-0,004
1081,6	-0,002
1082	-0,003
1082,4	-0,002
1082,8	-0,003
1083,2	-0,001
1083,6	-0
1084	0,001
1084,5	0,001
1084,9	0,002
1085,3	0
1085,7	0
1086,1	0,001
1086,5	0,001
1086,9	-0,002
1087,3	-0,002
1087,7	0
1088,2	0,001
1088,6	0,003
1089	0,003
1089,4	0,004
1089,8	0,007
1090,2	0,007
1090,6	0,002
1091	-0,001
1091,4	-0
1091,9	-0,003
1092,3	-0,002
1092,7	-0,003
1093,1	-0,007
1093,5	-0,003
1093,9	-0,006
1094,3	-0,001
1094,7	-0,001
1095,1	-0
1095,5	-0,003
1096	-0,003
1096,4	-0,005
1096,8	-0,006
1097,2	-0,014
1097,6	-0,014
1098	-0,018
1098,4	-0,012
1098,8	-0,003
1099,2	-0,007
1099,6	0,003
1100,1	0,005
1100,5	0,011
1100,9	0,012
1101,3	0,011
1101,7	0,005
1102,1	0,002
1102,5	0,007
1102,9	0,007
1103,3	0,006
1103,7	0,012
1104,2	0,009
1104,6	0,013
1105	0,025
1105,4	0,012
1105,8	0,019
1106,2	0,028
1106,6	0,01
1107	0,015
1107,4	-0,012
1107,8	-0,042
1108,3	11,061
