Data from Absorbance_19-05-34-134.txt Node
Date: Tue Nov 15 19:05:34 MSK 2022
User: vat
Spectrometer: MAYP114033
Trigger mode: 0
Integration Time (sec): 8,000000E-3
Scans to average: 10
Electric dark correction enabled: true
Nonlinearity correction enabled: false
Boxcar width: 3
XAxis mode: Wavelengths
Number of Pixels in Spectrum: 2068
>>>>>Begin Spectral Data<<<<<
199,4	-0,166
199,9	0,058
200,4	0,01
200,8	0,031
201,3	0,043
201,8	0,065
202,2	0,05
202,7	0,043
203,2	0,024
203,6	0,008
204,1	0,004
204,6	0,017
205	0,012
205,5	0,025
206	0,019
206,4	0,017
206,9	0,029
207,4	0,006
207,8	-0,005
208,3	-0,008
208,8	-0,005
209,2	-0,01
209,7	0,002
210,2	0,021
210,6	0,053
211,1	0,055
211,5	0,061
212	0,062
212,5	0,078
212,9	0,082
213,4	0,085
213,9	0,098
214,3	0,127
214,8	0,107
215,3	0,081
215,7	0,088
216,2	0,082
216,7	0,082
217,1	0,071
217,6	0,039
218,1	0,017
218,5	0,047
219	0,03
219,5	0,012
219,9	0,009
220,4	-0,016
220,9	0,018
221,3	0,044
221,8	0,017
222,3	0,034
222,7	0,042
223,2	0,031
223,6	0,03
224,1	0,019
224,6	0,022
225	0,034
225,5	0,02
226	0,037
226,4	0,049
226,9	0,063
227,4	0,068
227,8	0,056
228,3	0,059
228,8	0,045
229,2	0,058
229,7	0,042
230,2	0,048
230,6	0,048
231,1	0,064
231,5	0,076
232	0,101
232,5	0,079
232,9	0,1
233,4	0,089
233,9	0,078
234,3	0,086
234,8	0,076
235,3	0,08
235,7	0,068
236,2	0,073
236,7	0,08
237,1	0,082
237,6	0,072
238,1	0,062
238,5	0,051
239	0,061
239,4	0,044
239,9	0,06
240,4	0,057
240,8	0,062
241,3	0,072
241,8	0,083
242,2	0,103
242,7	0,097
243,2	0,101
243,6	0,113
244,1	0,127
244,6	0,137
245	0,151
245,5	0,142
245,9	0,152
246,4	0,143
246,9	0,145
247,3	0,145
247,8	0,134
248,3	0,143
248,7	0,153
249,2	0,167
249,7	0,189
250,1	0,206
250,6	0,23
251	0,272
251,5	0,303
252	0,332
252,4	0,361
252,9	0,385
253,4	0,417
253,8	0,439
254,3	0,451
254,8	0,465
255,2	0,482
255,7	0,493
256,1	0,501
256,6	0,501
257,1	0,502
257,5	0,511
258	0,512
258,5	0,51
258,9	0,51
259,4	0,513
259,9	0,516
260,3	0,519
260,8	0,519
261,2	0,521
261,7	0,523
262,2	0,523
262,6	0,52
263,1	0,523
263,6	0,52
264	0,517
264,5	0,514
264,9	0,512
265,4	0,509
265,9	0,505
266,3	0,496
266,8	0,489
267,3	0,482
267,7	0,477
268,2	0,467
268,7	0,458
269,1	0,452
269,6	0,444
270	0,435
270,5	0,426
271	0,414
271,4	0,407
271,9	0,397
272,4	0,386
272,8	0,375
273,3	0,365
273,7	0,354
274,2	0,344
274,7	0,331
275,1	0,32
275,6	0,311
276,1	0,299
276,5	0,287
277	0,275
277,4	0,264
277,9	0,253
278,4	0,243
278,8	0,231
279,3	0,22
279,8	0,21
280,2	0,2
280,7	0,19
281,1	0,181
281,6	0,171
282,1	0,163
282,5	0,155
283	0,147
283,4	0,139
283,9	0,132
284,4	0,125
284,8	0,119
285,3	0,113
285,8	0,106
286,2	0,101
286,7	0,097
287,1	0,091
287,6	0,087
288,1	0,082
288,5	0,078
289	0,074
289,5	0,071
289,9	0,067
290,4	0,065
290,8	0,062
291,3	0,06
291,8	0,059
292,2	0,057
292,7	0,056
293,1	0,054
293,6	0,053
294,1	0,051
294,5	0,05
295	0,049
295,5	0,047
295,9	0,046
296,4	0,045
296,8	0,044
297,3	0,043
297,8	0,043
298,2	0,042
298,7	0,041
299,1	0,041
299,6	0,04
300,1	0,041
300,5	0,042
301	0,041
301,5	0,042
301,9	0,042
302,4	0,042
302,8	0,042
303,3	0,042
303,8	0,042
304,2	0,042
304,7	0,042
305,1	0,042
305,6	0,041
306,1	0,041
306,5	0,04
307	0,04
307,4	0,041
307,9	0,041
308,4	0,042
308,8	0,041
309,3	0,042
309,8	0,042
310,2	0,043
310,7	0,043
311,1	0,044
311,6	0,045
312,1	0,046
312,5	0,045
313	0,045
313,4	0,046
313,9	0,045
314,4	0,046
314,8	0,045
315,3	0,046
315,7	0,047
316,2	0,047
316,7	0,048
317,1	0,049
317,6	0,049
318	0,051
318,5	0,052
319	0,053
319,4	0,054
319,9	0,054
320,3	0,056
320,8	0,056
321,3	0,056
321,7	0,056
322,2	0,056
322,6	0,057
323,1	0,058
323,6	0,058
324	0,058
324,5	0,059
324,9	0,059
325,4	0,06
325,9	0,06
326,3	0,061
326,8	0,061
327,2	0,062
327,7	0,063
328,2	0,063
328,6	0,063
329,1	0,064
329,5	0,065
330	0,066
330,5	0,066
330,9	0,067
331,4	0,068
331,8	0,068
332,3	0,069
332,8	0,07
333,2	0,071
333,7	0,071
334,1	0,071
334,6	0,072
335,1	0,072
335,5	0,071
336	0,072
336,4	0,072
336,9	0,072
337,4	0,073
337,8	0,074
338,3	0,074
338,7	0,074
339,2	0,075
339,7	0,075
340,1	0,075
340,6	0,075
341	0,076
341,5	0,077
342	0,077
342,4	0,076
342,9	0,075
343,3	0,076
343,8	0,076
344,2	0,075
344,7	0,074
345,2	0,075
345,6	0,075
346,1	0,075
346,5	0,074
347	0,073
347,5	0,074
347,9	0,074
348,4	0,072
348,8	0,073
349,3	0,073
349,8	0,073
350,2	0,072
350,7	0,071
351,1	0,071
351,6	0,071
352	0,07
352,5	0,069
353	0,068
353,4	0,068
353,9	0,067
354,3	0,067
354,8	0,066
355,3	0,066
355,7	0,066
356,2	0,065
356,6	0,064
357,1	0,063
357,5	0,062
358	0,06
358,5	0,059
358,9	0,058
359,4	0,057
359,8	0,056
360,3	0,055
360,8	0,055
361,2	0,054
361,7	0,053
362,1	0,052
362,6	0,051
363	0,051
363,5	0,05
364	0,048
364,4	0,047
364,9	0,046
365,3	0,046
365,8	0,044
366,3	0,043
366,7	0,042
367,2	0,041
367,6	0,039
368,1	0,038
368,5	0,038
369	0,038
369,5	0,038
369,9	0,038
370,4	0,037
370,8	0,037
371,3	0,035
371,7	0,034
372,2	0,033
372,7	0,032
373,1	0,031
373,6	0,031
374	0,031
374,5	0,031
374,9	0,031
375,4	0,029
375,9	0,029
376,3	0,028
376,8	0,028
377,2	0,028
377,7	0,027
378,2	0,027
378,6	0,027
379,1	0,027
379,5	0,027
380	0,026
380,4	0,025
380,9	0,026
381,4	0,025
381,8	0,025
382,3	0,025
382,7	0,025
383,2	0,024
383,6	0,024
384,1	0,024
384,6	0,024
385	0,024
385,5	0,025
385,9	0,023
386,4	0,023
386,8	0,023
387,3	0,022
387,7	0,021
388,2	0,021
388,7	0,02
389,1	0,021
389,6	0,022
390	0,021
390,5	0,021
390,9	0,021
391,4	0,02
391,9	0,02
392,3	0,02
392,8	0,02
393,2	0,02
393,7	0,02
394,1	0,02
394,6	0,021
395,1	0,021
395,5	0,021
396	0,02
396,4	0,02
396,9	0,02
397,3	0,02
397,8	0,019
398,2	0,018
398,7	0,019
399,2	0,018
399,6	0,018
400,1	0,018
400,5	0,018
401	0,018
401,4	0,019
401,9	0,018
402,4	0,018
402,8	0,018
403,3	0,018
403,7	0,018
404,2	0,017
404,6	0,016
405,1	0,017
405,5	0,017
406	0,017
406,5	0,017
406,9	0,017
407,4	0,016
407,8	0,016
408,3	0,016
408,7	0,016
409,2	0,016
409,6	0,017
410,1	0,018
410,6	0,018
411	0,018
411,5	0,018
411,9	0,018
412,4	0,018
412,8	0,017
413,3	0,017
413,7	0,018
414,2	0,018
414,7	0,018
415,1	0,018
415,6	0,017
416	0,017
416,5	0,017
416,9	0,016
417,4	0,016
417,8	0,015
418,3	0,015
418,8	0,016
419,2	0,016
419,7	0,016
420,1	0,016
420,6	0,017
421	0,017
421,5	0,017
421,9	0,017
422,4	0,017
422,8	0,017
423,3	0,017
423,8	0,017
424,2	0,017
424,7	0,017
425,1	0,016
425,6	0,017
426	0,016
426,5	0,016
426,9	0,016
427,4	0,016
427,9	0,016
428,3	0,016
428,8	0,016
429,2	0,016
429,7	0,017
430,1	0,016
430,6	0,016
431	0,017
431,5	0,016
431,9	0,016
432,4	0,017
432,8	0,017
433,3	0,017
433,8	0,018
434,2	0,018
434,7	0,018
435,1	0,017
435,6	0,016
436	0,016
436,5	0,015
436,9	0,015
437,4	0,015
437,8	0,016
438,3	0,016
438,8	0,016
439,2	0,016
439,7	0,016
440,1	0,016
440,6	0,016
441	0,016
441,5	0,016
441,9	0,017
442,4	0,017
442,8	0,017
443,3	0,017
443,7	0,017
444,2	0,016
444,7	0,016
445,1	0,016
445,6	0,016
446	0,016
446,5	0,017
446,9	0,018
447,4	0,018
447,8	0,018
448,3	0,017
448,7	0,017
449,2	0,017
449,6	0,017
450,1	0,015
450,6	0,016
451	0,016
451,5	0,016
451,9	0,016
452,4	0,016
452,8	0,016
453,3	0,016
453,7	0,016
454,2	0,016
454,6	0,016
455,1	0,015
455,5	0,015
456	0,016
456,4	0,016
456,9	0,016
457,3	0,016
457,8	0,016
458,3	0,017
458,7	0,017
459,2	0,017
459,6	0,017
460,1	0,016
460,5	0,017
461	0,017
461,4	0,016
461,9	0,017
462,3	0,015
462,8	0,016
463,2	0,016
463,7	0,016
464,1	0,016
464,6	0,016
465	0,016
465,5	0,016
466	0,016
466,4	0,016
466,9	0,016
467,3	0,016
467,8	0,016
468,2	0,016
468,7	0,016
469,1	0,016
469,6	0,016
470	0,016
470,5	0,017
470,9	0,016
471,4	0,017
471,8	0,018
472,3	0,018
472,7	0,018
473,2	0,018
473,6	0,018
474,1	0,018
474,5	0,017
475	0,017
475,4	0,016
475,9	0,016
476,4	0,015
476,8	0,015
477,3	0,016
477,7	0,015
478,2	0,015
478,6	0,015
479,1	0,016
479,5	0,016
480	0,016
480,4	0,015
480,9	0,016
481,3	0,015
481,8	0,015
482,2	0,015
482,7	0,015
483,1	0,015
483,6	0,015
484	0,015
484,5	0,015
484,9	0,014
485,4	0,014
485,8	0,014
486,3	0,015
486,7	0,014
487,2	0,014
487,6	0,014
488,1	0,014
488,5	0,015
489	0,015
489,4	0,014
489,9	0,014
490,4	0,015
490,8	0,015
491,3	0,015
491,7	0,015
492,2	0,015
492,6	0,015
493,1	0,015
493,5	0,015
494	0,015
494,4	0,015
494,9	0,015
495,3	0,014
495,8	0,014
496,2	0,014
496,7	0,013
497,1	0,013
497,6	0,013
498	0,014
498,5	0,015
498,9	0,014
499,4	0,014
499,8	0,014
500,3	0,015
500,7	0,015
501,2	0,014
501,6	0,013
502,1	0,013
502,5	0,014
503	0,015
503,4	0,014
503,9	0,014
504,3	0,014
504,8	0,014
505,2	0,014
505,7	0,014
506,1	0,013
506,6	0,013
507	0,013
507,5	0,013
507,9	0,014
508,4	0,014
508,8	0,013
509,3	0,014
509,7	0,014
510,2	0,014
510,6	0,013
511,1	0,013
511,5	0,013
512	0,013
512,4	0,013
512,9	0,013
513,3	0,013
513,8	0,013
514,2	0,013
514,7	0,013
515,1	0,013
515,6	0,012
516	0,013
516,5	0,013
516,9	0,012
517,4	0,013
517,8	0,013
518,3	0,012
518,7	0,013
519,2	0,012
519,6	0,011
520,1	0,012
520,5	0,011
521	0,011
521,4	0,011
521,9	0,011
522,3	0,011
522,8	0,011
523,2	0,011
523,7	0,011
524,1	0,011
524,6	0,011
525	0,011
525,5	0,011
525,9	0,012
526,4	0,012
526,8	0,012
527,3	0,013
527,7	0,013
528,2	0,013
528,6	0,012
529,1	0,012
529,5	0,012
530	0,012
530,4	0,011
530,9	0,011
531,3	0,011
531,8	0,013
532,2	0,011
532,6	0,011
533,1	0,01
533,5	0,011
534	0,011
534,4	0,011
534,9	0,011
535,3	0,011
535,8	0,012
536,2	0,013
536,7	0,012
537,1	0,012
537,6	0,012
538	0,012
538,5	0,012
538,9	0,013
539,4	0,012
539,8	0,011
540,3	0,01
540,7	0,011
541,2	0,011
541,6	0,012
542,1	0,011
542,5	0,012
543	0,012
543,4	0,012
543,9	0,012
544,3	0,011
544,8	0,01
545,2	0,011
545,7	0,01
546,1	0,01
546,5	0,01
547	0,011
547,4	0,011
547,9	0,011
548,3	0,011
548,8	0,011
549,2	0,011
549,7	0,011
550,1	0,01
550,6	0,01
551	0,01
551,5	0,01
551,9	0,01
552,4	0,01
552,8	0,01
553,3	0,01
553,7	0,009
554,2	0,009
554,6	0,01
555,1	0,01
555,5	0,009
555,9	0,01
556,4	0,009
556,8	0,01
557,3	0,01
557,7	0,01
558,2	0,01
558,6	0,011
559,1	0,01
559,5	0,01
560	0,01
560,4	0,01
560,9	0,01
561,3	0,01
561,8	0,009
562,2	0,01
562,7	0,01
563,1	0,01
563,6	0,01
564	0,01
564,4	0,009
564,9	0,01
565,3	0,01
565,8	0,01
566,2	0,01
566,7	0,01
567,1	0,01
567,6	0,01
568	0,01
568,5	0,01
568,9	0,01
569,4	0,01
569,8	0,01
570,3	0,009
570,7	0,01
571,1	0,01
571,6	0,01
572	0,009
572,5	0,009
572,9	0,009
573,4	0,009
573,8	0,01
574,3	0,009
574,7	0,009
575,2	0,01
575,6	0,01
576,1	0,01
576,5	0,01
576,9	0,01
577,4	0,01
577,8	0,01
578,3	0,01
578,7	0,009
579,2	0,009
579,6	0,009
580,1	0,009
580,5	0,009
581	0,009
581,4	0,009
581,9	0,009
582,3	0,009
582,7	0,009
583,2	0,009
583,6	0,009
584,1	0,009
584,5	0,009
585	0,01
585,4	0,009
585,9	0,009
586,3	0,01
586,8	0,01
587,2	0,009
587,6	0,009
588,1	0,009
588,5	0,009
589	0,009
589,4	0,009
589,9	0,009
590,3	0,008
590,8	0,008
591,2	0,008
591,7	0,008
592,1	0,008
592,5	0,008
593	0,008
593,4	0,008
593,9	0,008
594,3	0,008
594,8	0,008
595,2	0,008
595,7	0,008
596,1	0,009
596,6	0,009
597	0,009
597,4	0,009
597,9	0,01
598,3	0,01
598,8	0,01
599,2	0,01
599,7	0,01
600,1	0,01
600,6	0,009
601	0,009
601,4	0,009
601,9	0,009
602,3	0,009
602,8	0,009
603,2	0,008
603,7	0,008
604,1	0,008
604,6	0,008
605	0,008
605,4	0,008
605,9	0,008
606,3	0,009
606,8	0,009
607,2	0,009
607,7	0,009
608,1	0,009
608,6	0,009
609	0,009
609,4	0,008
609,9	0,008
610,3	0,008
610,8	0,009
611,2	0,009
611,7	0,009
612,1	0,008
612,6	0,009
613	0,009
613,4	0,009
613,9	0,009
614,3	0,009
614,8	0,009
615,2	0,009
615,7	0,009
616,1	0,008
616,6	0,009
617	0,008
617,4	0,008
617,9	0,009
618,3	0,009
618,8	0,008
619,2	0,008
619,7	0,009
620,1	0,009
620,5	0,009
621	0,009
621,4	0,009
621,9	0,009
622,3	0,009
622,8	0,009
623,2	0,009
623,6	0,008
624,1	0,008
624,5	0,008
625	0,008
625,4	0,008
625,9	0,008
626,3	0,008
626,8	0,008
627,2	0,008
627,6	0,008
628,1	0,008
628,5	0,008
629	0,008
629,4	0,008
629,9	0,008
630,3	0,008
630,7	0,008
631,2	0,008
631,6	0,008
632,1	0,007
632,5	0,007
633	0,007
633,4	0,007
633,8	0,008
634,3	0,008
634,7	0,009
635,2	0,009
635,6	0,009
636,1	0,008
636,5	0,009
636,9	0,008
637,4	0,009
637,8	0,009
638,3	0,009
638,7	0,01
639,2	0,01
639,6	0,009
640	0,009
640,5	0,008
640,9	0,008
641,4	0,008
641,8	0,008
642,2	0,008
642,7	0,008
643,1	0,008
643,6	0,008
644	0,008
644,5	0,008
644,9	0,007
645,3	0,007
645,8	0,008
646,2	0,008
646,7	0,008
647,1	0,009
647,6	0,009
648	0,008
648,4	0,008
648,9	0,008
649,3	0,007
649,8	0,008
650,2	0,008
650,6	0,008
651,1	0,008
651,5	0,009
652	0,009
652,4	0,009
652,9	0,009
653,3	0,009
653,7	0,009
654,2	0,009
654,6	0,009
655,1	0,008
655,5	0,006
655,9	0,006
656,4	0,006
656,8	0,006
657,3	0,006
657,7	0,005
658,2	0,004
658,6	0,007
659	0,007
659,5	0,007
659,9	0,008
660,4	0,008
660,8	0,008
661,2	0,008
661,7	0,008
662,1	0,008
662,6	0,008
663	0,008
663,4	0,008
663,9	0,008
664,3	0,008
664,8	0,009
665,2	0,008
665,6	0,009
666,1	0,009
666,5	0,009
667	0,008
667,4	0,008
667,9	0,008
668,3	0,008
668,7	0,007
669,2	0,007
669,6	0,007
670,1	0,008
670,5	0,008
670,9	0,008
671,4	0,008
671,8	0,009
672,3	0,008
672,7	0,008
673,1	0,008
673,6	0,008
674	0,008
674,5	0,008
674,9	0,007
675,3	0,007
675,8	0,007
676,2	0,007
676,7	0,007
677,1	0,007
677,5	0,007
678	0,007
678,4	0,006
678,9	0,006
679,3	0,007
679,7	0,007
680,2	0,007
680,6	0,007
681,1	0,007
681,5	0,007
681,9	0,007
682,4	0,007
682,8	0,007
683,3	0,007
683,7	0,006
684,1	0,007
684,6	0,007
685	0,007
685,5	0,007
685,9	0,008
686,3	0,008
686,8	0,008
687,2	0,008
687,7	0,008
688,1	0,008
688,5	0,008
689	0,008
689,4	0,008
689,9	0,007
690,3	0,007
690,7	0,007
691,2	0,007
691,6	0,007
692	0,007
692,5	0,007
692,9	0,007
693,4	0,007
693,8	0,007
694,2	0,007
694,7	0,008
695,1	0,008
695,6	0,008
696	0,007
696,4	0,007
696,9	0,007
697,3	0,008
697,8	0,008
698,2	0,007
698,6	0,007
699,1	0,008
699,5	0,008
699,9	0,008
700,4	0,007
700,8	0,007
701,3	0,007
701,7	0,007
702,1	0,008
702,6	0,007
703	0,007
703,5	0,007
703,9	0,007
704,3	0,007
704,8	0,007
705,2	0,007
705,6	0,007
706,1	0,007
706,5	0,007
707	0,007
707,4	0,007
707,8	0,007
708,3	0,007
708,7	0,007
709,2	0,008
709,6	0,008
710	0,008
710,5	0,008
710,9	0,008
711,3	0,008
711,8	0,008
712,2	0,007
712,7	0,008
713,1	0,008
713,5	0,008
714	0,008
714,4	0,008
714,8	0,008
715,3	0,007
715,7	0,007
716,2	0,007
716,6	0,007
717	0,006
717,5	0,006
717,9	0,007
718,3	0,007
718,8	0,007
719,2	0,008
719,7	0,008
720,1	0,008
720,5	0,008
721	0,008
721,4	0,008
721,8	0,007
722,3	0,007
722,7	0,007
723,2	0,007
723,6	0,007
724	0,007
724,5	0,007
724,9	0,007
725,3	0,008
725,8	0,008
726,2	0,007
726,7	0,008
727,1	0,008
727,5	0,007
728	0,007
728,4	0,007
728,8	0,007
729,3	0,008
729,7	0,007
730,1	0,008
730,6	0,008
731	0,007
731,5	0,008
731,9	0,007
732,3	0,007
732,8	0,007
733,2	0,007
733,6	0,007
734,1	0,007
734,5	0,007
734,9	0,007
735,4	0,007
735,8	0,007
736,3	0,007
736,7	0,007
737,1	0,007
737,6	0,007
738	0,007
738,4	0,007
738,9	0,007
739,3	0,007
739,7	0,007
740,2	0,007
740,6	0,007
741,1	0,008
741,5	0,008
741,9	0,007
742,4	0,007
742,8	0,007
743,2	0,007
743,7	0,008
744,1	0,007
744,5	0,007
745	0,007
745,4	0,007
745,8	0,007
746,3	0,007
746,7	0,007
747,2	0,007
747,6	0,008
748	0,008
748,5	0,008
748,9	0,008
749,3	0,008
749,8	0,008
750,2	0,008
750,6	0,008
751,1	0,008
751,5	0,007
751,9	0,007
752,4	0,007
752,8	0,007
753,3	0,007
753,7	0,007
754,1	0,007
754,6	0,007
755	0,007
755,4	0,007
755,9	0,007
756,3	0,007
756,7	0,007
757,2	0,007
757,6	0,007
758	0,007
758,5	0,007
758,9	0,007
759,3	0,008
759,8	0,008
760,2	0,008
760,6	0,008
761,1	0,008
761,5	0,008
761,9	0,008
762,4	0,007
762,8	0,007
763,3	0,007
763,7	0,007
764,1	0,007
764,6	0,007
765	0,007
765,4	0,007
765,9	0,007
766,3	0,007
766,7	0,007
767,2	0,007
767,6	0,007
768	0,007
768,5	0,007
768,9	0,007
769,3	0,007
769,8	0,007
770,2	0,006
770,6	0,006
771,1	0,006
771,5	0,006
771,9	0,006
772,4	0,007
772,8	0,007
773,2	0,007
773,7	0,007
774,1	0,007
774,5	0,007
775	0,007
775,4	0,007
775,8	0,007
776,3	0,007
776,7	0,007
777,1	0,007
777,6	0,007
778	0,007
778,4	0,007
778,9	0,007
779,3	0,007
779,7	0,006
780,2	0,006
780,6	0,006
781	0,006
781,5	0,006
781,9	0,006
782,3	0,007
782,8	0,007
783,2	0,006
783,6	0,006
784,1	0,007
784,5	0,007
784,9	0,007
785,4	0,007
785,8	0,007
786,2	0,007
786,7	0,007
787,1	0,007
787,5	0,007
788	0,008
788,4	0,008
788,8	0,008
789,3	0,007
789,7	0,007
790,1	0,007
790,6	0,007
791	0,007
791,4	0,006
791,9	0,007
792,3	0,007
792,7	0,007
793,2	0,007
793,6	0,007
794	0,007
794,5	0,007
794,9	0,007
795,3	0,007
795,8	0,007
796,2	0,007
796,6	0,007
797,1	0,007
797,5	0,007
797,9	0,007
798,4	0,007
798,8	0,008
799,2	0,008
799,7	0,008
800,1	0,008
800,5	0,008
801	0,008
801,4	0,008
801,8	0,008
802,2	0,008
802,7	0,007
803,1	0,007
803,5	0,007
804	0,007
804,4	0,007
804,8	0,006
805,3	0,007
805,7	0,007
806,1	0,007
806,6	0,007
807	0,007
807,4	0,007
807,9	0,007
808,3	0,007
808,7	0,007
809,2	0,007
809,6	0,007
810	0,007
810,4	0,007
810,9	0,007
811,3	0,007
811,7	0,007
812,2	0,007
812,6	0,007
813	0,007
813,5	0,007
813,9	0,008
814,3	0,008
814,8	0,007
815,2	0,007
815,6	0,007
816,1	0,007
816,5	0,007
816,9	0,007
817,3	0,007
817,8	0,007
818,2	0,007
818,6	0,007
819,1	0,007
819,5	0,007
819,9	0,007
820,4	0,007
820,8	0,007
821,2	0,007
821,7	0,007
822,1	0,008
822,5	0,008
822,9	0,008
823,4	0,008
823,8	0,008
824,2	0,007
824,7	0,008
825,1	0,008
825,5	0,007
826	0,007
826,4	0,007
826,8	0,007
827,3	0,007
827,7	0,006
828,1	0,006
828,5	0,006
829	0,006
829,4	0,006
829,8	0,007
830,3	0,007
830,7	0,007
831,1	0,007
831,6	0,007
832	0,007
832,4	0,007
832,8	0,007
833,3	0,007
833,7	0,007
834,1	0,007
834,6	0,007
835	0,007
835,4	0,007
835,8	0,007
836,3	0,007
836,7	0,007
837,1	0,006
837,6	0,007
838	0,007
838,4	0,007
838,9	0,007
839,3	0,008
839,7	0,008
840,1	0,008
840,6	0,008
841	0,008
841,4	0,008
841,9	0,008
842,3	0,008
842,7	0,007
843,1	0,007
843,6	0,006
844	0,006
844,4	0,006
844,9	0,006
845,3	0,006
845,7	0,007
846,2	0,007
846,6	0,007
847	0,008
847,4	0,007
847,9	0,007
848,3	0,007
848,7	0,007
849,2	0,007
849,6	0,007
850	0,007
850,4	0,008
850,9	0,008
851,3	0,008
851,7	0,007
852,2	0,007
852,6	0,007
853	0,007
853,4	0,007
853,9	0,007
854,3	0,007
854,7	0,007
855,2	0,007
855,6	0,007
856	0,007
856,4	0,007
856,9	0,008
857,3	0,007
857,7	0,008
858,2	0,007
858,6	0,007
859	0,008
859,4	0,007
859,9	0,007
860,3	0,007
860,7	0,007
861,1	0,007
861,6	0,007
862	0,006
862,4	0,006
862,9	0,007
863,3	0,007
863,7	0,007
864,1	0,007
864,6	0,007
865	0,007
865,4	0,007
865,9	0,007
866,3	0,007
866,7	0,007
867,1	0,007
867,6	0,007
868	0,007
868,4	0,007
868,8	0,007
869,3	0,007
869,7	0,006
870,1	0,006
870,6	0,006
871	0,006
871,4	0,006
871,8	0,006
872,3	0,006
872,7	0,006
873,1	0,006
873,5	0,006
874	0,007
874,4	0,007
874,8	0,007
875,3	0,007
875,7	0,007
876,1	0,007
876,5	0,007
877	0,007
877,4	0,007
877,8	0,007
878,2	0,007
878,7	0,007
879,1	0,007
879,5	0,008
879,9	0,007
880,4	0,008
880,8	0,007
881,2	0,007
881,7	0,007
882,1	0,007
882,5	0,007
882,9	0,007
883,4	0,007
883,8	0,007
884,2	0,008
884,6	0,008
885,1	0,007
885,5	0,007
885,9	0,007
886,3	0,007
886,8	0,007
887,2	0,007
887,6	0,007
888	0,007
888,5	0,007
888,9	0,007
889,3	0,007
889,8	0,007
890,2	0,007
890,6	0,007
891	0,007
891,5	0,008
891,9	0,007
892,3	0,007
892,7	0,007
893,2	0,007
893,6	0,007
894	0,007
894,4	0,007
894,9	0,007
895,3	0,007
895,7	0,007
896,1	0,007
896,6	0,007
897	0,006
897,4	0,006
897,8	0,007
898,3	0,007
898,7	0,006
899,1	0,007
899,5	0,007
900	0,007
900,4	0,007
900,8	0,007
901,2	0,007
901,7	0,007
902,1	0,007
902,5	0,007
902,9	0,007
903,4	0,007
903,8	0,007
904,2	0,008
904,6	0,008
905,1	0,008
905,5	0,008
905,9	0,008
906,3	0,008
906,8	0,007
907,2	0,007
907,6	0,007
908	0,007
908,5	0,007
908,9	0,007
909,3	0,008
909,7	0,008
910,2	0,008
910,6	0,008
911	0,008
911,4	0,008
911,9	0,008
912,3	0,007
912,7	0,007
913,1	0,007
913,6	0,008
914	0,008
914,4	0,008
914,8	0,007
915,3	0,008
915,7	0,007
916,1	0,008
916,5	0,007
916,9	0,007
917,4	0,007
917,8	0,007
918,2	0,008
918,6	0,008
919,1	0,008
919,5	0,008
919,9	0,008
920,3	0,007
920,8	0,007
921,2	0,007
921,6	0,007
922	0,007
922,5	0,006
922,9	0,007
923,3	0,007
923,7	0,007
924,2	0,007
924,6	0,008
925	0,008
925,4	0,008
925,8	0,008
926,3	0,007
926,7	0,008
927,1	0,008
927,5	0,007
928	0,007
928,4	0,008
928,8	0,008
929,2	0,008
929,7	0,007
930,1	0,008
930,5	0,008
930,9	0,007
931,3	0,007
931,8	0,007
932,2	0,008
932,6	0,008
933	0,008
933,5	0,008
933,9	0,008
934,3	0,008
934,7	0,009
935,2	0,008
935,6	0,008
936	0,008
936,4	0,008
936,8	0,008
937,3	0,008
937,7	0,007
938,1	0,007
938,5	0,008
939	0,008
939,4	0,008
939,8	0,008
940,2	0,009
940,6	0,009
941,1	0,009
941,5	0,009
941,9	0,009
942,3	0,01
942,8	0,01
943,2	0,01
943,6	0,009
944	0,01
944,4	0,01
944,9	0,009
945,3	0,008
945,7	0,009
946,1	0,009
946,6	0,01
947	0,01
947,4	0,01
947,8	0,011
948,2	0,011
948,7	0,01
949,1	0,011
949,5	0,01
949,9	0,01
950,3	0,01
950,8	0,009
951,2	0,01
951,6	0,01
952	0,01
952,5	0,01
952,9	0,01
953,3	0,01
953,7	0,01
954,1	0,01
954,6	0,01
955	0,009
955,4	0,01
955,8	0,01
956,2	0,01
956,7	0,01
957,1	0,01
957,5	0,009
957,9	0,009
958,3	0,009
958,8	0,009
959,2	0,01
959,6	0,01
960	0,011
960,5	0,013
960,9	0,013
961,3	0,014
961,7	0,013
962,1	0,013
962,6	0,013
963	0,012
963,4	0,012
963,8	0,012
964,2	0,011
964,7	0,011
965,1	0,011
965,5	0,011
965,9	0,011
966,3	0,01
966,8	0,01
967,2	0,01
967,6	0,01
968	0,01
968,4	0,01
968,9	0,01
969,3	0,01
969,7	0,01
970,1	0,011
970,5	0,011
971	0,01
971,4	0,011
971,8	0,01
972,2	0,01
972,6	0,01
973,1	0,01
973,5	0,01
973,9	0,01
974,3	0,009
974,7	0,01
975,2	0,009
975,6	0,009
976	0,01
976,4	0,009
976,8	0,009
977,3	0,009
977,7	0,009
978,1	0,01
978,5	0,01
978,9	0,01
979,4	0,01
979,8	0,01
980,2	0,011
980,6	0,011
981	0,01
981,5	0,01
981,9	0,01
982,3	0,009
982,7	0,009
983,1	0,009
983,6	0,009
984	0,009
984,4	0,01
984,8	0,01
985,2	0,009
985,6	0,009
986,1	0,009
986,5	0,008
986,9	0,009
987,3	0,008
987,7	0,007
988,2	0,008
988,6	0,007
989	0,008
989,4	0,008
989,8	0,008
990,3	0,008
990,7	0,009
991,1	0,009
991,5	0,01
991,9	0,009
992,3	0,009
992,8	0,009
993,2	0,009
993,6	0,009
994	0,01
994,4	0,009
994,9	0,009
995,3	0,009
995,7	0,009
996,1	0,009
996,5	0,009
996,9	0,009
997,4	0,009
997,8	0,009
998,2	0,008
998,6	0,008
999	0,008
999,5	0,007
999,9	0,006
1000,3	0,006
1000,7	0,006
1001,1	0,006
1001,5	0,006
1002	0,006
1002,4	0,007
1002,8	0,008
1003,2	0,007
1003,6	0,007
1004	0,008
1004,5	0,007
1004,9	0,007
1005,3	0,007
1005,7	0,007
1006,1	0,006
1006,6	0,007
1007	0,007
1007,4	0,008
1007,8	0,007
1008,2	0,008
1008,6	0,008
1009,1	0,007
1009,5	0,007
1009,9	0,007
1010,3	0,007
1010,7	0,006
1011,1	0,006
1011,6	0,006
1012	0,007
1012,4	0,007
1012,8	0,006
1013,2	0,006
1013,6	0,006
1014,1	0,006
1014,5	0,006
1014,9	0,006
1015,3	0,006
1015,7	0,005
1016,1	0,006
1016,6	0,006
1017	0,005
1017,4	0,005
1017,8	0,006
1018,2	0,006
1018,6	0,006
1019,1	0,005
1019,5	0,006
1019,9	0,006
1020,3	0,007
1020,7	0,006
1021,1	0,006
1021,6	0,006
1022	0,007
1022,4	0,006
1022,8	0,007
1023,2	0,006
1023,6	0,007
1024,1	0,007
1024,5	0,008
1024,9	0,008
1025,3	0,008
1025,7	0,007
1026,1	0,007
1026,6	0,007
1027	0,007
1027,4	0,006
1027,8	0,006
1028,2	0,007
1028,6	0,006
1029	0,006
1029,5	0,006
1029,9	0,006
1030,3	0,006
1030,7	0,007
1031,1	0,007
1031,5	0,007
1032	0,007
1032,4	0,007
1032,8	0,008
1033,2	0,009
1033,6	0,008
1034	0,007
1034,4	0,008
1034,9	0,008
1035,3	0,008
1035,7	0,007
1036,1	0,007
1036,5	0,007
1036,9	0,007
1037,4	0,007
1037,8	0,006
1038,2	0,006
1038,6	0,006
1039	0,006
1039,4	0,006
1039,8	0,006
1040,3	0,006
1040,7	0,006
1041,1	0,006
1041,5	0,006
1041,9	0,006
1042,3	0,006
1042,7	0,005
1043,2	0,006
1043,6	0,006
1044	0,005
1044,4	0,006
1044,8	0,006
1045,2	0,005
1045,6	0,006
1046,1	0,006
1046,5	0,006
1046,9	0,007
1047,3	0,006
1047,7	0,007
1048,1	0,007
1048,5	0,007
1049	0,006
1049,4	0,006
1049,8	0,006
1050,2	0,006
1050,6	0,007
1051	0,007
1051,4	0,007
1051,9	0,008
1052,3	0,007
1052,7	0,007
1053,1	0,007
1053,5	0,006
1053,9	0,006
1054,3	0,006
1054,8	0,006
1055,2	0,006
1055,6	0,007
1056	0,007
1056,4	0,008
1056,8	0,007
1057,2	0,007
1057,6	0,007
1058,1	0,009
1058,5	0,008
1058,9	0,008
1059,3	0,007
1059,7	0,008
1060,1	0,008
1060,5	0,007
1061	0,006
1061,4	0,007
1061,8	0,006
1062,2	0,006
1062,6	0,006
1063	0,005
1063,4	0,005
1063,8	0,005
1064,3	0,004
1064,7	0,005
1065,1	0,006
1065,5	0,005
1065,9	0,007
1066,3	0,006
1066,7	0,006
1067,1	0,005
1067,6	0,004
1068	0,004
1068,4	0,005
1068,8	0,005
1069,2	0,006
1069,6	0,007
1070	0,007
1070,4	0,009
1070,9	0,009
1071,3	0,009
1071,7	0,009
1072,1	0,007
1072,5	0,007
1072,9	0,008
1073,3	0,006
1073,7	0,006
1074,2	0,005
1074,6	0,005
1075	0,005
1075,4	0,005
1075,8	0,005
1076,2	0,005
1076,6	0,004
1077	0,005
1077,5	0,004
1077,9	0,004
1078,3	0,003
1078,7	0,002
1079,1	0,004
1079,5	0,003
1079,9	0,004
1080,3	0,005
1080,7	0,006
1081,2	0,008
1081,6	0,007
1082	0,008
1082,4	0,008
1082,8	0,008
1083,2	0,008
1083,6	0,007
1084	0,006
1084,5	0,006
1084,9	0,004
1085,3	0,005
1085,7	0,003
1086,1	0,004
1086,5	0,006
1086,9	0,005
1087,3	0,008
1087,7	0,005
1088,2	0,006
1088,6	0,006
1089	0,002
1089,4	0,004
1089,8	0,003
1090,2	0,003
1090,6	0,005
1091	0,006
1091,4	0,004
1091,9	0,006
1092,3	0
1092,7	0,001
1093,1	-0,001
1093,5	0,005
1093,9	0,006
1094,3	0,011
1094,7	0,001
1095,1	0,005
1095,5	0,001
1096	-0,001
1096,4	-0,01
1096,8	-0,017
1097,2	-0,023
1097,6	-0,02
1098	-0,01
1098,4	-0,008
1098,8	-0,003
1099,2	0,005
1099,6	0,006
1100,1	0,011
1100,5	0,02
1100,9	0,011
1101,3	0,017
1101,7	0,016
1102,1	0,022
1102,5	0,024
1102,9	0,028
1103,3	0,021
1103,7	0,021
1104,2	0,033
1104,6	0,033
1105	0,013
1105,4	0,014
1105,8	-0
1106,2	0,001
1106,6	-0,011
1107	-0,036
1107,4	-0,057
1107,8	-0,017
1108,3	-0
