Data from Absorbance_19-09-56-033.txt Node
Date: Tue Nov 15 19:09:56 MSK 2022
User: vat
Spectrometer: MAYP114033
Trigger mode: 0
Integration Time (sec): 8,000000E-3
Scans to average: 10
Electric dark correction enabled: true
Nonlinearity correction enabled: false
Boxcar width: 3
XAxis mode: Wavelengths
Number of Pixels in Spectrum: 2068
>>>>>Begin Spectral Data<<<<<
199,4	0,231
199,9	0,542
200,4	0,164
200,8	0,155
201,3	0,071
201,8	0,081
202,2	0,061
202,7	0,067
203,2	0,023
203,6	0,055
204,1	0,018
204,6	0,028
205	0,028
205,5	0,03
206	0,024
206,4	0,025
206,9	-0,006
207,4	-0,007
207,8	-0,011
208,3	-0,031
208,8	-0,013
209,2	-0,024
209,7	-0,001
210,2	0,002
210,6	0,034
211,1	0,046
211,5	0,038
212	0,046
212,5	0,057
212,9	0,062
213,4	0,081
213,9	0,102
214,3	0,093
214,8	0,111
215,3	0,101
215,7	0,094
216,2	0,049
216,7	0,053
217,1	0,033
217,6	0,037
218,1	0,025
218,5	0,019
219	0,016
219,5	0,035
219,9	0,042
220,4	0,021
220,9	0,031
221,3	0,034
221,8	0,038
222,3	0,055
222,7	0,035
223,2	0,009
223,6	0,01
224,1	0,001
224,6	-0,001
225	-0,01
225,5	-0,017
226	0,008
226,4	0,01
226,9	0,017
227,4	0,026
227,8	0,014
228,3	0,03
228,8	0,007
229,2	0,026
229,7	0,027
230,2	0,026
230,6	0,035
231,1	0,051
231,5	0,046
232	0,078
232,5	0,049
232,9	0,056
233,4	0,032
233,9	0,025
234,3	0,041
234,8	0,058
235,3	0,052
235,7	0,058
236,2	0,067
236,7	0,109
237,1	0,091
237,6	0,081
238,1	0,059
238,5	0,037
239	0,025
239,4	0,019
239,9	0,015
240,4	0,018
240,8	0,023
241,3	0,02
241,8	0,019
242,2	0,035
242,7	0,044
243,2	0,042
243,6	0,056
244,1	0,051
244,6	0,059
245	0,076
245,5	0,041
245,9	0,039
246,4	0,033
246,9	0,013
247,3	0,021
247,8	0,018
248,3	0,023
248,7	0,046
249,2	0,043
249,7	0,036
250,1	0,045
250,6	0,031
251	0,031
251,5	0,037
252	0,037
252,4	0,042
252,9	0,049
253,4	0,051
253,8	0,055
254,3	0,059
254,8	0,054
255,2	0,054
255,7	0,052
256,1	0,051
256,6	0,048
257,1	0,047
257,5	0,046
258	0,046
258,5	0,047
258,9	0,047
259,4	0,047
259,9	0,048
260,3	0,046
260,8	0,046
261,2	0,046
261,7	0,046
262,2	0,045
262,6	0,043
263,1	0,044
263,6	0,045
264	0,043
264,5	0,042
264,9	0,04
265,4	0,04
265,9	0,041
266,3	0,04
266,8	0,039
267,3	0,04
267,7	0,039
268,2	0,038
268,7	0,037
269,1	0,036
269,6	0,034
270	0,033
270,5	0,034
271	0,034
271,4	0,036
271,9	0,036
272,4	0,037
272,8	0,038
273,3	0,038
273,7	0,037
274,2	0,037
274,7	0,035
275,1	0,035
275,6	0,034
276,1	0,034
276,5	0,033
277	0,033
277,4	0,033
277,9	0,033
278,4	0,034
278,8	0,033
279,3	0,033
279,8	0,033
280,2	0,033
280,7	0,033
281,1	0,033
281,6	0,031
282,1	0,031
282,5	0,031
283	0,031
283,4	0,031
283,9	0,031
284,4	0,03
284,8	0,03
285,3	0,029
285,8	0,027
286,2	0,028
286,7	0,028
287,1	0,027
287,6	0,027
288,1	0,027
288,5	0,027
289	0,026
289,5	0,026
289,9	0,025
290,4	0,025
290,8	0,027
291,3	0,026
291,8	0,027
292,2	0,028
292,7	0,027
293,1	0,027
293,6	0,026
294,1	0,025
294,5	0,025
295	0,024
295,5	0,024
295,9	0,024
296,4	0,024
296,8	0,023
297,3	0,023
297,8	0,023
298,2	0,024
298,7	0,024
299,1	0,025
299,6	0,025
300,1	0,026
300,5	0,026
301	0,027
301,5	0,027
301,9	0,027
302,4	0,027
302,8	0,027
303,3	0,027
303,8	0,027
304,2	0,026
304,7	0,027
305,1	0,027
305,6	0,027
306,1	0,027
306,5	0,027
307	0,028
307,4	0,028
307,9	0,029
308,4	0,03
308,8	0,029
309,3	0,03
309,8	0,03
310,2	0,031
310,7	0,032
311,1	0,032
311,6	0,033
312,1	0,034
312,5	0,033
313	0,033
313,4	0,033
313,9	0,033
314,4	0,033
314,8	0,032
315,3	0,033
315,7	0,034
316,2	0,034
316,7	0,034
317,1	0,035
317,6	0,035
318	0,037
318,5	0,038
319	0,039
319,4	0,039
319,9	0,039
320,3	0,04
320,8	0,04
321,3	0,04
321,7	0,04
322,2	0,04
322,6	0,04
323,1	0,041
323,6	0,041
324	0,041
324,5	0,041
324,9	0,042
325,4	0,042
325,9	0,042
326,3	0,042
326,8	0,042
327,2	0,043
327,7	0,044
328,2	0,044
328,6	0,044
329,1	0,045
329,5	0,045
330	0,046
330,5	0,046
330,9	0,046
331,4	0,046
331,8	0,046
332,3	0,046
332,8	0,046
333,2	0,046
333,7	0,046
334,1	0,047
334,6	0,047
335,1	0,047
335,5	0,048
336	0,048
336,4	0,049
336,9	0,049
337,4	0,049
337,8	0,049
338,3	0,05
338,7	0,05
339,2	0,05
339,7	0,05
340,1	0,05
340,6	0,05
341	0,05
341,5	0,05
342	0,05
342,4	0,05
342,9	0,05
343,3	0,05
343,8	0,051
344,2	0,051
344,7	0,05
345,2	0,05
345,6	0,049
346,1	0,049
346,5	0,049
347	0,048
347,5	0,048
347,9	0,048
348,4	0,047
348,8	0,047
349,3	0,048
349,8	0,048
350,2	0,047
350,7	0,047
351,1	0,045
351,6	0,046
352	0,046
352,5	0,046
353	0,046
353,4	0,046
353,9	0,046
354,3	0,046
354,8	0,045
355,3	0,045
355,7	0,044
356,2	0,044
356,6	0,043
357,1	0,043
357,5	0,043
358	0,042
358,5	0,041
358,9	0,041
359,4	0,04
359,8	0,041
360,3	0,041
360,8	0,041
361,2	0,04
361,7	0,04
362,1	0,041
362,6	0,041
363	0,041
363,5	0,04
364	0,038
364,4	0,039
364,9	0,039
365,3	0,039
365,8	0,038
366,3	0,037
366,7	0,037
367,2	0,037
367,6	0,036
368,1	0,036
368,5	0,035
369	0,036
369,5	0,035
369,9	0,035
370,4	0,035
370,8	0,034
371,3	0,033
371,7	0,032
372,2	0,032
372,7	0,032
373,1	0,032
373,6	0,031
374	0,032
374,5	0,032
374,9	0,032
375,4	0,032
375,9	0,032
376,3	0,031
376,8	0,032
377,2	0,031
377,7	0,03
378,2	0,03
378,6	0,03
379,1	0,029
379,5	0,029
380	0,028
380,4	0,028
380,9	0,028
381,4	0,028
381,8	0,028
382,3	0,028
382,7	0,029
383,2	0,029
383,6	0,029
384,1	0,029
384,6	0,028
385	0,028
385,5	0,029
385,9	0,028
386,4	0,027
386,8	0,027
387,3	0,027
387,7	0,027
388,2	0,027
388,7	0,027
389,1	0,028
389,6	0,029
390	0,028
390,5	0,028
390,9	0,028
391,4	0,028
391,9	0,028
392,3	0,028
392,8	0,028
393,2	0,028
393,7	0,028
394,1	0,028
394,6	0,028
395,1	0,029
395,5	0,028
396	0,028
396,4	0,027
396,9	0,027
397,3	0,027
397,8	0,027
398,2	0,026
398,7	0,026
399,2	0,026
399,6	0,026
400,1	0,026
400,5	0,026
401	0,026
401,4	0,026
401,9	0,026
402,4	0,025
402,8	0,026
403,3	0,026
403,7	0,026
404,2	0,026
404,6	0,025
405,1	0,026
405,5	0,026
406	0,026
406,5	0,026
406,9	0,026
407,4	0,026
407,8	0,026
408,3	0,026
408,7	0,026
409,2	0,027
409,6	0,027
410,1	0,027
410,6	0,028
411	0,028
411,5	0,028
411,9	0,027
412,4	0,027
412,8	0,026
413,3	0,026
413,7	0,026
414,2	0,026
414,7	0,027
415,1	0,027
415,6	0,026
416	0,027
416,5	0,026
416,9	0,026
417,4	0,026
417,8	0,025
418,3	0,024
418,8	0,025
419,2	0,024
419,7	0,025
420,1	0,025
420,6	0,025
421	0,025
421,5	0,025
421,9	0,026
422,4	0,026
422,8	0,026
423,3	0,026
423,8	0,026
424,2	0,026
424,7	0,026
425,1	0,025
425,6	0,026
426	0,025
426,5	0,025
426,9	0,025
427,4	0,026
427,9	0,026
428,3	0,026
428,8	0,026
429,2	0,027
429,7	0,027
430,1	0,026
430,6	0,026
431	0,026
431,5	0,026
431,9	0,026
432,4	0,026
432,8	0,026
433,3	0,026
433,8	0,027
434,2	0,027
434,7	0,027
435,1	0,027
435,6	0,026
436	0,026
436,5	0,025
436,9	0,026
437,4	0,025
437,8	0,026
438,3	0,025
438,8	0,025
439,2	0,026
439,7	0,027
440,1	0,026
440,6	0,027
441	0,026
441,5	0,027
441,9	0,027
442,4	0,026
442,8	0,025
443,3	0,025
443,7	0,024
444,2	0,024
444,7	0,024
445,1	0,024
445,6	0,024
446	0,025
446,5	0,026
446,9	0,026
447,4	0,026
447,8	0,026
448,3	0,026
448,7	0,026
449,2	0,025
449,6	0,024
450,1	0,024
450,6	0,024
451	0,025
451,5	0,024
451,9	0,024
452,4	0,025
452,8	0,025
453,3	0,025
453,7	0,024
454,2	0,024
454,6	0,024
455,1	0,024
455,5	0,023
456	0,023
456,4	0,024
456,9	0,024
457,3	0,025
457,8	0,025
458,3	0,025
458,7	0,025
459,2	0,025
459,6	0,025
460,1	0,025
460,5	0,025
461	0,025
461,4	0,025
461,9	0,025
462,3	0,024
462,8	0,024
463,2	0,024
463,7	0,024
464,1	0,024
464,6	0,023
465	0,023
465,5	0,024
466	0,023
466,4	0,023
466,9	0,023
467,3	0,023
467,8	0,023
468,2	0,023
468,7	0,023
469,1	0,023
469,6	0,023
470	0,023
470,5	0,023
470,9	0,022
471,4	0,023
471,8	0,023
472,3	0,024
472,7	0,024
473,2	0,024
473,6	0,023
474,1	0,023
474,5	0,023
475	0,022
475,4	0,022
475,9	0,022
476,4	0,022
476,8	0,022
477,3	0,022
477,7	0,022
478,2	0,022
478,6	0,022
479,1	0,022
479,5	0,021
480	0,021
480,4	0,021
480,9	0,021
481,3	0,021
481,8	0,021
482,2	0,02
482,7	0,02
483,1	0,02
483,6	0,02
484	0,02
484,5	0,019
484,9	0,019
485,4	0,02
485,8	0,021
486,3	0,021
486,7	0,021
487,2	0,021
487,6	0,021
488,1	0,021
488,5	0,02
489	0,019
489,4	0,019
489,9	0,019
490,4	0,02
490,8	0,02
491,3	0,02
491,7	0,02
492,2	0,021
492,6	0,02
493,1	0,02
493,5	0,019
494	0,019
494,4	0,019
494,9	0,018
495,3	0,016
495,8	0,017
496,2	0,016
496,7	0,017
497,1	0,016
497,6	0,016
498	0,017
498,5	0,017
498,9	0,017
499,4	0,017
499,8	0,017
500,3	0,017
500,7	0,017
501,2	0,017
501,6	0,017
502,1	0,017
502,5	0,017
503	0,017
503,4	0,017
503,9	0,016
504,3	0,016
504,8	0,016
505,2	0,016
505,7	0,015
506,1	0,014
506,6	0,015
507	0,014
507,5	0,014
507,9	0,015
508,4	0,015
508,8	0,014
509,3	0,015
509,7	0,014
510,2	0,014
510,6	0,015
511,1	0,014
511,5	0,015
512	0,015
512,4	0,015
512,9	0,014
513,3	0,014
513,8	0,014
514,2	0,015
514,7	0,014
515,1	0,014
515,6	0,014
516	0,015
516,5	0,013
516,9	0,013
517,4	0,013
517,8	0,013
518,3	0,012
518,7	0,012
519,2	0,011
519,6	0,012
520,1	0,012
520,5	0,012
521	0,012
521,4	0,012
521,9	0,012
522,3	0,012
522,8	0,012
523,2	0,011
523,7	0,011
524,1	0,011
524,6	0,011
525	0,011
525,5	0,012
525,9	0,012
526,4	0,013
526,8	0,013
527,3	0,014
527,7	0,014
528,2	0,014
528,6	0,014
529,1	0,013
529,5	0,013
530	0,013
530,4	0,012
530,9	0,012
531,3	0,012
531,8	0,013
532,2	0,013
532,6	0,012
533,1	0,012
533,5	0,012
534	0,011
534,4	0,01
534,9	0,01
535,3	0,01
535,8	0,011
536,2	0,011
536,7	0,011
537,1	0,012
537,6	0,013
538	0,013
538,5	0,013
538,9	0,013
539,4	0,012
539,8	0,012
540,3	0,012
540,7	0,011
541,2	0,011
541,6	0,012
542,1	0,012
542,5	0,012
543	0,012
543,4	0,013
543,9	0,013
544,3	0,013
544,8	0,012
545,2	0,012
545,7	0,013
546,1	0,013
546,5	0,013
547	0,013
547,4	0,014
547,9	0,013
548,3	0,013
548,8	0,012
549,2	0,012
549,7	0,012
550,1	0,012
550,6	0,011
551	0,011
551,5	0,011
551,9	0,011
552,4	0,011
552,8	0,011
553,3	0,011
553,7	0,01
554,2	0,01
554,6	0,01
555,1	0,01
555,5	0,01
555,9	0,011
556,4	0,01
556,8	0,01
557,3	0,011
557,7	0,012
558,2	0,011
558,6	0,012
559,1	0,011
559,5	0,012
560	0,012
560,4	0,012
560,9	0,011
561,3	0,012
561,8	0,012
562,2	0,011
562,7	0,011
563,1	0,011
563,6	0,011
564	0,011
564,4	0,01
564,9	0,01
565,3	0,01
565,8	0,01
566,2	0,011
566,7	0,01
567,1	0,01
567,6	0,011
568	0,011
568,5	0,011
568,9	0,011
569,4	0,011
569,8	0,011
570,3	0,011
570,7	0,012
571,1	0,012
571,6	0,012
572	0,012
572,5	0,012
572,9	0,012
573,4	0,011
573,8	0,012
574,3	0,011
574,7	0,011
575,2	0,011
575,6	0,012
576,1	0,012
576,5	0,012
576,9	0,011
577,4	0,012
577,8	0,012
578,3	0,012
578,7	0,012
579,2	0,012
579,6	0,012
580,1	0,012
580,5	0,011
581	0,011
581,4	0,011
581,9	0,011
582,3	0,011
582,7	0,011
583,2	0,01
583,6	0,011
584,1	0,011
584,5	0,011
585	0,012
585,4	0,011
585,9	0,011
586,3	0,012
586,8	0,012
587,2	0,012
587,6	0,012
588,1	0,012
588,5	0,012
589	0,012
589,4	0,012
589,9	0,012
590,3	0,012
590,8	0,011
591,2	0,011
591,7	0,011
592,1	0,01
592,5	0,01
593	0,01
593,4	0,01
593,9	0,01
594,3	0,01
594,8	0,01
595,2	0,01
595,7	0,01
596,1	0,01
596,6	0,01
597	0,01
597,4	0,011
597,9	0,011
598,3	0,011
598,8	0,011
599,2	0,011
599,7	0,011
600,1	0,011
600,6	0,011
601	0,011
601,4	0,012
601,9	0,012
602,3	0,012
602,8	0,012
603,2	0,011
603,7	0,011
604,1	0,011
604,6	0,01
605	0,01
605,4	0,01
605,9	0,01
606,3	0,011
606,8	0,011
607,2	0,011
607,7	0,011
608,1	0,011
608,6	0,01
609	0,01
609,4	0,009
609,9	0,009
610,3	0,01
610,8	0,01
611,2	0,01
611,7	0,01
612,1	0,009
612,6	0,01
613	0,01
613,4	0,009
613,9	0,009
614,3	0,01
614,8	0,01
615,2	0,01
615,7	0,01
616,1	0,01
616,6	0,01
617	0,01
617,4	0,01
617,9	0,01
618,3	0,011
618,8	0,011
619,2	0,01
619,7	0,01
620,1	0,01
620,5	0,01
621	0,01
621,4	0,01
621,9	0,01
622,3	0,01
622,8	0,01
623,2	0,01
623,6	0,01
624,1	0,01
624,5	0,01
625	0,009
625,4	0,009
625,9	0,009
626,3	0,009
626,8	0,009
627,2	0,009
627,6	0,009
628,1	0,009
628,5	0,009
629	0,009
629,4	0,008
629,9	0,008
630,3	0,008
630,7	0,008
631,2	0,008
631,6	0,008
632,1	0,007
632,5	0,007
633	0,007
633,4	0,007
633,8	0,008
634,3	0,008
634,7	0,008
635,2	0,008
635,6	0,008
636,1	0,008
636,5	0,009
636,9	0,009
637,4	0,009
637,8	0,009
638,3	0,009
638,7	0,01
639,2	0,01
639,6	0,01
640	0,009
640,5	0,009
640,9	0,009
641,4	0,009
641,8	0,008
642,2	0,008
642,7	0,008
643,1	0,008
643,6	0,008
644	0,008
644,5	0,008
644,9	0,008
645,3	0,008
645,8	0,008
646,2	0,008
646,7	0,008
647,1	0,009
647,6	0,009
648	0,008
648,4	0,008
648,9	0,008
649,3	0,008
649,8	0,008
650,2	0,008
650,6	0,008
651,1	0,009
651,5	0,009
652	0,009
652,4	0,008
652,9	0,008
653,3	0,008
653,7	0,008
654,2	0,007
654,6	0,007
655,1	0,007
655,5	0,004
655,9	0,006
656,4	0,006
656,8	0,006
657,3	0,006
657,7	0,006
658,2	0,006
658,6	0,01
659	0,009
659,5	0,008
659,9	0,008
660,4	0,008
660,8	0,008
661,2	0,008
661,7	0,008
662,1	0,008
662,6	0,009
663	0,008
663,4	0,008
663,9	0,008
664,3	0,008
664,8	0,008
665,2	0,008
665,6	0,008
666,1	0,008
666,5	0,008
667	0,007
667,4	0,007
667,9	0,007
668,3	0,008
668,7	0,007
669,2	0,008
669,6	0,008
670,1	0,008
670,5	0,008
670,9	0,008
671,4	0,008
671,8	0,008
672,3	0,009
672,7	0,008
673,1	0,008
673,6	0,008
674	0,008
674,5	0,008
674,9	0,008
675,3	0,007
675,8	0,007
676,2	0,007
676,7	0,007
677,1	0,008
677,5	0,007
678	0,007
678,4	0,007
678,9	0,007
679,3	0,007
679,7	0,007
680,2	0,007
680,6	0,007
681,1	0,007
681,5	0,007
681,9	0,007
682,4	0,007
682,8	0,007
683,3	0,007
683,7	0,007
684,1	0,007
684,6	0,007
685	0,007
685,5	0,007
685,9	0,007
686,3	0,007
686,8	0,007
687,2	0,007
687,7	0,008
688,1	0,007
688,5	0,007
689	0,007
689,4	0,007
689,9	0,006
690,3	0,006
690,7	0,006
691,2	0,006
691,6	0,006
692	0,006
692,5	0,006
692,9	0,007
693,4	0,007
693,8	0,007
694,2	0,007
694,7	0,007
695,1	0,007
695,6	0,007
696	0,007
696,4	0,007
696,9	0,007
697,3	0,007
697,8	0,007
698,2	0,007
698,6	0,007
699,1	0,007
699,5	0,007
699,9	0,007
700,4	0,007
700,8	0,007
701,3	0,008
701,7	0,008
702,1	0,008
702,6	0,008
703	0,008
703,5	0,007
703,9	0,008
704,3	0,007
704,8	0,007
705,2	0,008
705,6	0,007
706,1	0,007
706,5	0,007
707	0,007
707,4	0,007
707,8	0,007
708,3	0,007
708,7	0,007
709,2	0,008
709,6	0,008
710	0,008
710,5	0,008
710,9	0,008
711,3	0,008
711,8	0,008
712,2	0,008
712,7	0,008
713,1	0,008
713,5	0,008
714	0,008
714,4	0,008
714,8	0,008
715,3	0,007
715,7	0,007
716,2	0,007
716,6	0,007
717	0,006
717,5	0,007
717,9	0,006
718,3	0,007
718,8	0,007
719,2	0,007
719,7	0,007
720,1	0,007
720,5	0,008
721	0,008
721,4	0,008
721,8	0,008
722,3	0,008
722,7	0,008
723,2	0,008
723,6	0,008
724	0,008
724,5	0,007
724,9	0,008
725,3	0,008
725,8	0,008
726,2	0,008
726,7	0,008
727,1	0,008
727,5	0,008
728	0,008
728,4	0,008
728,8	0,008
729,3	0,008
729,7	0,007
730,1	0,008
730,6	0,008
731	0,008
731,5	0,008
731,9	0,007
732,3	0,008
732,8	0,008
733,2	0,008
733,6	0,008
734,1	0,008
734,5	0,007
734,9	0,008
735,4	0,008
735,8	0,007
736,3	0,007
736,7	0,007
737,1	0,007
737,6	0,007
738	0,007
738,4	0,006
738,9	0,007
739,3	0,007
739,7	0,007
740,2	0,007
740,6	0,007
741,1	0,007
741,5	0,007
741,9	0,007
742,4	0,007
742,8	0,007
743,2	0,007
743,7	0,008
744,1	0,007
744,5	0,007
745	0,007
745,4	0,007
745,8	0,007
746,3	0,007
746,7	0,007
747,2	0,007
747,6	0,008
748	0,007
748,5	0,008
748,9	0,008
749,3	0,008
749,8	0,008
750,2	0,008
750,6	0,008
751,1	0,008
751,5	0,008
751,9	0,008
752,4	0,007
752,8	0,008
753,3	0,008
753,7	0,008
754,1	0,008
754,6	0,008
755	0,007
755,4	0,007
755,9	0,007
756,3	0,007
756,7	0,007
757,2	0,007
757,6	0,007
758	0,008
758,5	0,008
758,9	0,008
759,3	0,008
759,8	0,008
760,2	0,008
760,6	0,008
761,1	0,007
761,5	0,007
761,9	0,007
762,4	0,007
762,8	0,007
763,3	0,006
763,7	0,007
764,1	0,007
764,6	0,007
765	0,007
765,4	0,007
765,9	0,007
766,3	0,007
766,7	0,007
767,2	0,007
767,6	0,007
768	0,006
768,5	0,006
768,9	0,006
769,3	0,006
769,8	0,006
770,2	0,006
770,6	0,007
771,1	0,007
771,5	0,007
771,9	0,007
772,4	0,007
772,8	0,007
773,2	0,007
773,7	0,007
774,1	0,007
774,5	0,008
775	0,008
775,4	0,008
775,8	0,008
776,3	0,007
776,7	0,007
777,1	0,007
777,6	0,007
778	0,007
778,4	0,007
778,9	0,006
779,3	0,006
779,7	0,006
780,2	0,006
780,6	0,006
781	0,007
781,5	0,007
781,9	0,007
782,3	0,007
782,8	0,007
783,2	0,007
783,6	0,007
784,1	0,007
784,5	0,007
784,9	0,007
785,4	0,007
785,8	0,008
786,2	0,008
786,7	0,008
787,1	0,008
787,5	0,007
788	0,008
788,4	0,008
788,8	0,008
789,3	0,008
789,7	0,008
790,1	0,008
790,6	0,008
791	0,007
791,4	0,007
791,9	0,007
792,3	0,007
792,7	0,007
793,2	0,007
793,6	0,006
794	0,006
794,5	0,007
794,9	0,006
795,3	0,007
795,8	0,006
796,2	0,007
796,6	0,007
797,1	0,007
797,5	0,007
797,9	0,007
798,4	0,007
798,8	0,007
799,2	0,007
799,7	0,007
800,1	0,008
800,5	0,008
801	0,008
801,4	0,007
801,8	0,007
802,2	0,007
802,7	0,007
803,1	0,007
803,5	0,007
804	0,007
804,4	0,007
804,8	0,007
805,3	0,006
805,7	0,006
806,1	0,006
806,6	0,006
807	0,007
807,4	0,006
807,9	0,006
808,3	0,007
808,7	0,007
809,2	0,007
809,6	0,007
810	0,007
810,4	0,007
810,9	0,007
811,3	0,006
811,7	0,007
812,2	0,007
812,6	0,007
813	0,007
813,5	0,007
813,9	0,007
814,3	0,007
814,8	0,007
815,2	0,008
815,6	0,008
816,1	0,008
816,5	0,008
816,9	0,007
817,3	0,007
817,8	0,007
818,2	0,007
818,6	0,007
819,1	0,007
819,5	0,007
819,9	0,008
820,4	0,008
820,8	0,008
821,2	0,008
821,7	0,008
822,1	0,008
822,5	0,008
822,9	0,008
823,4	0,008
823,8	0,007
824,2	0,007
824,7	0,007
825,1	0,007
825,5	0,007
826	0,007
826,4	0,007
826,8	0,007
827,3	0,007
827,7	0,007
828,1	0,006
828,5	0,006
829	0,006
829,4	0,006
829,8	0,006
830,3	0,006
830,7	0,006
831,1	0,006
831,6	0,007
832	0,007
832,4	0,007
832,8	0,007
833,3	0,007
833,7	0,007
834,1	0,007
834,6	0,007
835	0,007
835,4	0,007
835,8	0,007
836,3	0,007
836,7	0,007
837,1	0,006
837,6	0,007
838	0,007
838,4	0,007
838,9	0,007
839,3	0,008
839,7	0,008
840,1	0,008
840,6	0,008
841	0,008
841,4	0,008
841,9	0,008
842,3	0,007
842,7	0,006
843,1	0,006
843,6	0,006
844	0,006
844,4	0,006
844,9	0,006
845,3	0,006
845,7	0,007
846,2	0,007
846,6	0,007
847	0,007
847,4	0,007
847,9	0,007
848,3	0,007
848,7	0,007
849,2	0,007
849,6	0,007
850	0,007
850,4	0,008
850,9	0,008
851,3	0,008
851,7	0,007
852,2	0,007
852,6	0,007
853	0,007
853,4	0,007
853,9	0,007
854,3	0,007
854,7	0,007
855,2	0,007
855,6	0,007
856	0,007
856,4	0,007
856,9	0,008
857,3	0,007
857,7	0,007
858,2	0,006
858,6	0,006
859	0,006
859,4	0,006
859,9	0,005
860,3	0,006
860,7	0,005
861,1	0,006
861,6	0,005
862	0,005
862,4	0,006
862,9	0,006
863,3	0,006
863,7	0,006
864,1	0,006
864,6	0,007
865	0,007
865,4	0,006
865,9	0,006
866,3	0,006
866,7	0,006
867,1	0,006
867,6	0,006
868	0,006
868,4	0,006
868,8	0,006
869,3	0,007
869,7	0,006
870,1	0,006
870,6	0,006
871	0,006
871,4	0,006
871,8	0,006
872,3	0,006
872,7	0,006
873,1	0,006
873,5	0,006
874	0,006
874,4	0,006
874,8	0,007
875,3	0,006
875,7	0,007
876,1	0,006
876,5	0,006
877	0,006
877,4	0,006
877,8	0,006
878,2	0,006
878,7	0,006
879,1	0,006
879,5	0,006
879,9	0,006
880,4	0,007
880,8	0,006
881,2	0,006
881,7	0,006
882,1	0,007
882,5	0,006
882,9	0,007
883,4	0,007
883,8	0,007
884,2	0,007
884,6	0,008
885,1	0,008
885,5	0,008
885,9	0,007
886,3	0,007
886,8	0,007
887,2	0,007
887,6	0,007
888	0,006
888,5	0,006
888,9	0,007
889,3	0,007
889,8	0,007
890,2	0,007
890,6	0,007
891	0,007
891,5	0,007
891,9	0,007
892,3	0,007
892,7	0,007
893,2	0,007
893,6	0,007
894	0,007
894,4	0,007
894,9	0,007
895,3	0,007
895,7	0,007
896,1	0,007
896,6	0,007
897	0,007
897,4	0,007
897,8	0,007
898,3	0,007
898,7	0,006
899,1	0,007
899,5	0,007
900	0,007
900,4	0,007
900,8	0,007
901,2	0,007
901,7	0,007
902,1	0,007
902,5	0,006
902,9	0,006
903,4	0,006
903,8	0,006
904,2	0,007
904,6	0,007
905,1	0,007
905,5	0,008
905,9	0,008
906,3	0,008
906,8	0,007
907,2	0,007
907,6	0,007
908	0,007
908,5	0,007
908,9	0,007
909,3	0,007
909,7	0,007
910,2	0,007
910,6	0,007
911	0,007
911,4	0,007
911,9	0,007
912,3	0,007
912,7	0,006
913,1	0,006
913,6	0,006
914	0,006
914,4	0,007
914,8	0,007
915,3	0,007
915,7	0,006
916,1	0,007
916,5	0,006
916,9	0,007
917,4	0,006
917,8	0,006
918,2	0,007
918,6	0,007
919,1	0,006
919,5	0,007
919,9	0,007
920,3	0,006
920,8	0,006
921,2	0,006
921,6	0,007
922	0,006
922,5	0,006
922,9	0,006
923,3	0,007
923,7	0,007
924,2	0,007
924,6	0,007
925	0,007
925,4	0,007
925,8	0,007
926,3	0,007
926,7	0,007
927,1	0,007
927,5	0,007
928	0,007
928,4	0,007
928,8	0,007
929,2	0,007
929,7	0,007
930,1	0,007
930,5	0,007
930,9	0,007
931,3	0,007
931,8	0,007
932,2	0,006
932,6	0,006
933	0,006
933,5	0,006
933,9	0,007
934,3	0,007
934,7	0,008
935,2	0,008
935,6	0,008
936	0,007
936,4	0,008
936,8	0,008
937,3	0,007
937,7	0,007
938,1	0,007
938,5	0,007
939	0,008
939,4	0,008
939,8	0,008
940,2	0,008
940,6	0,008
941,1	0,008
941,5	0,008
941,9	0,009
942,3	0,008
942,8	0,009
943,2	0,009
943,6	0,009
944	0,009
944,4	0,009
944,9	0,009
945,3	0,008
945,7	0,009
946,1	0,009
946,6	0,009
947	0,009
947,4	0,009
947,8	0,009
948,2	0,009
948,7	0,009
949,1	0,009
949,5	0,009
949,9	0,009
950,3	0,008
950,8	0,008
951,2	0,009
951,6	0,009
952	0,009
952,5	0,008
952,9	0,009
953,3	0,009
953,7	0,009
954,1	0,009
954,6	0,009
955	0,009
955,4	0,009
955,8	0,01
956,2	0,01
956,7	0,01
957,1	0,009
957,5	0,01
957,9	0,01
958,3	0,01
958,8	0,01
959,2	0,01
959,6	0,011
960	0,012
960,5	0,012
960,9	0,011
961,3	0,011
961,7	0,011
962,1	0,01
962,6	0,01
963	0,009
963,4	0,009
963,8	0,009
964,2	0,009
964,7	0,008
965,1	0,009
965,5	0,009
965,9	0,009
966,3	0,009
966,8	0,009
967,2	0,009
967,6	0,008
968	0,009
968,4	0,009
968,9	0,009
969,3	0,009
969,7	0,009
970,1	0,01
970,5	0,01
971	0,01
971,4	0,01
971,8	0,009
972,2	0,009
972,6	0,01
973,1	0,009
973,5	0,009
973,9	0,009
974,3	0,009
974,7	0,009
975,2	0,009
975,6	0,009
976	0,009
976,4	0,009
976,8	0,009
977,3	0,009
977,7	0,009
978,1	0,01
978,5	0,009
978,9	0,009
979,4	0,008
979,8	0,009
980,2	0,009
980,6	0,008
981	0,008
981,5	0,008
981,9	0,008
982,3	0,008
982,7	0,008
983,1	0,007
983,6	0,007
984	0,007
984,4	0,008
984,8	0,008
985,2	0,008
985,6	0,008
986,1	0,008
986,5	0,008
986,9	0,008
987,3	0,008
987,7	0,007
988,2	0,008
988,6	0,007
989	0,007
989,4	0,008
989,8	0,008
990,3	0,007
990,7	0,007
991,1	0,007
991,5	0,008
991,9	0,007
992,3	0,007
992,8	0,008
993,2	0,007
993,6	0,009
994	0,009
994,4	0,009
994,9	0,009
995,3	0,009
995,7	0,008
996,1	0,009
996,5	0,008
996,9	0,008
997,4	0,007
997,8	0,007
998,2	0,007
998,6	0,008
999	0,008
999,5	0,008
999,9	0,007
1000,3	0,007
1000,7	0,007
1001,1	0,007
1001,5	0,006
1002	0,006
1002,4	0,006
1002,8	0,007
1003,2	0,007
1003,6	0,007
1004	0,007
1004,5	0,007
1004,9	0,007
1005,3	0,007
1005,7	0,007
1006,1	0,007
1006,6	0,008
1007	0,008
1007,4	0,008
1007,8	0,008
1008,2	0,007
1008,6	0,007
1009,1	0,006
1009,5	0,006
1009,9	0,006
1010,3	0,005
1010,7	0,005
1011,1	0,006
1011,6	0,006
1012	0,007
1012,4	0,006
1012,8	0,007
1013,2	0,007
1013,6	0,007
1014,1	0,006
1014,5	0,006
1014,9	0,005
1015,3	0,006
1015,7	0,005
1016,1	0,006
1016,6	0,006
1017	0,006
1017,4	0,006
1017,8	0,006
1018,2	0,005
1018,6	0,006
1019,1	0,005
1019,5	0,006
1019,9	0,007
1020,3	0,007
1020,7	0,008
1021,1	0,008
1021,6	0,008
1022	0,008
1022,4	0,009
1022,8	0,008
1023,2	0,007
1023,6	0,006
1024,1	0,006
1024,5	0,007
1024,9	0,007
1025,3	0,005
1025,7	0,006
1026,1	0,007
1026,6	0,006
1027	0,006
1027,4	0,005
1027,8	0,005
1028,2	0,006
1028,6	0,006
1029	0,006
1029,5	0,006
1029,9	0,006
1030,3	0,006
1030,7	0,007
1031,1	0,007
1031,5	0,006
1032	0,006
1032,4	0,006
1032,8	0,006
1033,2	0,006
1033,6	0,006
1034	0,006
1034,4	0,006
1034,9	0,006
1035,3	0,006
1035,7	0,006
1036,1	0,006
1036,5	0,006
1036,9	0,005
1037,4	0,006
1037,8	0,006
1038,2	0,006
1038,6	0,006
1039	0,006
1039,4	0,006
1039,8	0,006
1040,3	0,006
1040,7	0,006
1041,1	0,006
1041,5	0,006
1041,9	0,006
1042,3	0,005
1042,7	0,005
1043,2	0,005
1043,6	0,005
1044	0,004
1044,4	0,004
1044,8	0,005
1045,2	0,005
1045,6	0,005
1046,1	0,006
1046,5	0,005
1046,9	0,006
1047,3	0,005
1047,7	0,005
1048,1	0,005
1048,5	0,005
1049	0,004
1049,4	0,004
1049,8	0,005
1050,2	0,006
1050,6	0,006
1051	0,005
1051,4	0,005
1051,9	0,006
1052,3	0,006
1052,7	0,006
1053,1	0,006
1053,5	0,005
1053,9	0,006
1054,3	0,007
1054,8	0,007
1055,2	0,007
1055,6	0,007
1056	0,007
1056,4	0,007
1056,8	0,006
1057,2	0,006
1057,6	0,007
1058,1	0,007
1058,5	0,008
1058,9	0,007
1059,3	0,007
1059,7	0,008
1060,1	0,009
1060,5	0,008
1061	0,008
1061,4	0,008
1061,8	0,008
1062,2	0,008
1062,6	0,008
1063	0,006
1063,4	0,007
1063,8	0,006
1064,3	0,006
1064,7	0,006
1065,1	0,006
1065,5	0,005
1065,9	0,006
1066,3	0,005
1066,7	0,007
1067,1	0,007
1067,6	0,006
1068	0,006
1068,4	0,006
1068,8	0,006
1069,2	0,009
1069,6	0,007
1070	0,007
1070,4	0,009
1070,9	0,009
1071,3	0,01
1071,7	0,011
1072,1	0,008
1072,5	0,008
1072,9	0,009
1073,3	0,008
1073,7	0,007
1074,2	0,007
1074,6	0,006
1075	0,007
1075,4	0,006
1075,8	0,005
1076,2	0,005
1076,6	0,004
1077	0,003
1077,5	0,004
1077,9	0,003
1078,3	0,002
1078,7	0,003
1079,1	0,002
1079,5	0,002
1079,9	0,003
1080,3	0,003
1080,7	0,005
1081,2	0,006
1081,6	0,006
1082	0,009
1082,4	0,011
1082,8	0,012
1083,2	0,01
1083,6	0,01
1084	0,01
1084,5	0,007
1084,9	0,004
1085,3	0,001
1085,7	-0,001
1086,1	0,002
1086,5	0,004
1086,9	0,001
1087,3	0,005
1087,7	0,005
1088,2	0,009
1088,6	0,01
1089	0,008
1089,4	0,006
1089,8	0,01
1090,2	0,008
1090,6	0,007
1091	0,005
1091,4	0,002
1091,9	0,004
1092,3	0,004
1092,7	0,004
1093,1	0,003
1093,5	0,01
1093,9	0,013
1094,3	0,021
1094,7	0,014
1095,1	0,017
1095,5	0,015
1096	0,014
1096,4	0,009
1096,8	0,008
1097,2	-0,004
1097,6	0,001
1098	0,004
1098,4	0,003
1098,8	0,009
1099,2	0,02
1099,6	0,024
1100,1	0,029
1100,5	0,044
1100,9	0,039
1101,3	0,04
1101,7	0,034
1102,1	0,035
1102,5	0,026
1102,9	0,02
1103,3	0,008
1103,7	0,008
1104,2	0,012
1104,6	0,005
1105	-0,008
1105,4	-0,005
1105,8	0,007
1106,2	0,003
1106,6	0,003
1107	-0,022
1107,4	-0,008
1107,8	0,037
1108,3	-0,589
