Data from Absorbance_19-15-39-993.txt Node
Date: Tue Nov 15 19:15:39 MSK 2022
User: vat
Spectrometer: MAYP114033
Trigger mode: 0
Integration Time (sec): 8,000000E-3
Scans to average: 10
Electric dark correction enabled: true
Nonlinearity correction enabled: false
Boxcar width: 3
XAxis mode: Wavelengths
Number of Pixels in Spectrum: 2068
>>>>>Begin Spectral Data<<<<<
199,4	-0,167
199,9	0,462
200,4	0,094
200,8	0,097
201,3	0,034
201,8	0,024
202,2	0,052
202,7	0,075
203,2	0,062
203,6	0,078
204,1	0,076
204,6	0,085
205	0,078
205,5	0,088
206	0,077
206,4	0,068
206,9	0,086
207,4	0,051
207,8	0,035
208,3	0,035
208,8	0,02
209,2	0,013
209,7	0,029
210,2	0,034
210,6	0,061
211,1	0,076
211,5	0,091
212	0,069
212,5	0,075
212,9	0,059
213,4	0,036
213,9	0,017
214,3	0,003
214,8	0,003
215,3	0,022
215,7	0,018
216,2	-0,002
216,7	0,024
217,1	0,053
217,6	0,073
218,1	0,045
218,5	0,031
219	0,029
219,5	0,032
219,9	0,019
220,4	-0,002
220,9	-0,003
221,3	0,007
221,8	0,022
222,3	0,034
222,7	0,044
223,2	0,04
223,6	0,069
224,1	0,069
224,6	0,069
225	0,054
225,5	0,066
226	0,092
226,4	0,089
226,9	0,073
227,4	0,094
227,8	0,113
228,3	0,12
228,8	0,105
229,2	0,071
229,7	0,072
230,2	0,059
230,6	0,038
231,1	0,043
231,5	0,038
232	0,045
232,5	0,068
232,9	0,077
233,4	0,081
233,9	0,076
234,3	0,067
234,8	0,061
235,3	0,036
235,7	0,033
236,2	0,027
236,7	0,018
237,1	0,015
237,6	0,016
238,1	0,042
238,5	0,079
239	0,084
239,4	0,104
239,9	0,129
240,4	0,141
240,8	0,128
241,3	0,093
241,8	0,079
242,2	0,071
242,7	0,035
243,2	0,028
243,6	0,042
244,1	0,066
244,6	0,102
245	0,11
245,5	0,108
245,9	0,114
246,4	0,118
246,9	0,115
247,3	0,106
247,8	0,08
248,3	0,073
248,7	0,082
249,2	0,083
249,7	0,101
250,1	0,108
250,6	0,133
251	0,153
251,5	0,156
252	0,16
252,4	0,162
252,9	0,161
253,4	0,166
253,8	0,167
254,3	0,169
254,8	0,17
255,2	0,176
255,7	0,18
256,1	0,177
256,6	0,178
257,1	0,176
257,5	0,176
258	0,176
258,5	0,172
258,9	0,171
259,4	0,17
259,9	0,168
260,3	0,167
260,8	0,168
261,2	0,167
261,7	0,167
262,2	0,165
262,6	0,163
263,1	0,163
263,6	0,161
264	0,158
264,5	0,158
264,9	0,156
265,4	0,156
265,9	0,155
266,3	0,154
266,8	0,154
267,3	0,154
267,7	0,153
268,2	0,152
268,7	0,151
269,1	0,151
269,6	0,149
270	0,148
270,5	0,146
271	0,144
271,4	0,142
271,9	0,141
272,4	0,14
272,8	0,14
273,3	0,14
273,7	0,139
274,2	0,138
274,7	0,137
275,1	0,136
275,6	0,135
276,1	0,134
276,5	0,132
277	0,132
277,4	0,13
277,9	0,129
278,4	0,128
278,8	0,127
279,3	0,127
279,8	0,126
280,2	0,125
280,7	0,125
281,1	0,124
281,6	0,124
282,1	0,122
282,5	0,122
283	0,122
283,4	0,12
283,9	0,119
284,4	0,118
284,8	0,117
285,3	0,118
285,8	0,118
286,2	0,117
286,7	0,117
287,1	0,117
287,6	0,117
288,1	0,116
288,5	0,115
289	0,115
289,5	0,114
289,9	0,113
290,4	0,114
290,8	0,113
291,3	0,113
291,8	0,113
292,2	0,112
292,7	0,113
293,1	0,113
293,6	0,113
294,1	0,114
294,5	0,113
295	0,113
295,5	0,113
295,9	0,113
296,4	0,113
296,8	0,113
297,3	0,112
297,8	0,112
298,2	0,113
298,7	0,113
299,1	0,113
299,6	0,113
300,1	0,113
300,5	0,113
301	0,114
301,5	0,113
301,9	0,112
302,4	0,112
302,8	0,114
303,3	0,115
303,8	0,115
304,2	0,115
304,7	0,117
305,1	0,118
305,6	0,119
306,1	0,119
306,5	0,12
307	0,121
307,4	0,121
307,9	0,122
308,4	0,123
308,8	0,124
309,3	0,124
309,8	0,125
310,2	0,126
310,7	0,128
311,1	0,129
311,6	0,129
312,1	0,13
312,5	0,13
313	0,131
313,4	0,131
313,9	0,132
314,4	0,133
314,8	0,134
315,3	0,135
315,7	0,136
316,2	0,137
316,7	0,139
317,1	0,139
317,6	0,14
318	0,141
318,5	0,141
319	0,142
319,4	0,143
319,9	0,144
320,3	0,144
320,8	0,145
321,3	0,147
321,7	0,148
322,2	0,149
322,6	0,15
323,1	0,151
323,6	0,153
324	0,153
324,5	0,154
324,9	0,155
325,4	0,156
325,9	0,157
326,3	0,157
326,8	0,157
327,2	0,158
327,7	0,159
328,2	0,16
328,6	0,16
329,1	0,16
329,5	0,161
330	0,163
330,5	0,164
330,9	0,164
331,4	0,165
331,8	0,166
332,3	0,166
332,8	0,166
333,2	0,166
333,7	0,166
334,1	0,166
334,6	0,166
335,1	0,167
335,5	0,167
336	0,168
336,4	0,167
336,9	0,167
337,4	0,167
337,8	0,167
338,3	0,167
338,7	0,168
339,2	0,167
339,7	0,167
340,1	0,166
340,6	0,166
341	0,165
341,5	0,164
342	0,163
342,4	0,162
342,9	0,162
343,3	0,161
343,8	0,16
344,2	0,159
344,7	0,158
345,2	0,157
345,6	0,156
346,1	0,156
346,5	0,155
347	0,154
347,5	0,153
347,9	0,153
348,4	0,152
348,8	0,151
349,3	0,149
349,8	0,147
350,2	0,146
350,7	0,145
351,1	0,144
351,6	0,142
352	0,14
352,5	0,139
353	0,138
353,4	0,137
353,9	0,135
354,3	0,134
354,8	0,134
355,3	0,133
355,7	0,131
356,2	0,13
356,6	0,129
357,1	0,127
357,5	0,126
358	0,125
358,5	0,125
358,9	0,124
359,4	0,124
359,8	0,123
360,3	0,122
360,8	0,122
361,2	0,121
361,7	0,12
362,1	0,12
362,6	0,118
363	0,118
363,5	0,117
364	0,116
364,4	0,115
364,9	0,114
365,3	0,113
365,8	0,112
366,3	0,113
366,7	0,112
367,2	0,112
367,6	0,111
368,1	0,11
368,5	0,11
369	0,109
369,5	0,107
369,9	0,106
370,4	0,105
370,8	0,103
371,3	0,103
371,7	0,102
372,2	0,102
372,7	0,101
373,1	0,101
373,6	0,101
374	0,101
374,5	0,1
374,9	0,099
375,4	0,099
375,9	0,099
376,3	0,099
376,8	0,098
377,2	0,097
377,7	0,097
378,2	0,097
378,6	0,097
379,1	0,096
379,5	0,096
380	0,095
380,4	0,095
380,9	0,095
381,4	0,094
381,8	0,095
382,3	0,094
382,7	0,094
383,2	0,094
383,6	0,093
384,1	0,092
384,6	0,092
385	0,091
385,5	0,091
385,9	0,092
386,4	0,091
386,8	0,091
387,3	0,091
387,7	0,091
388,2	0,09
388,7	0,09
389,1	0,089
389,6	0,089
390	0,089
390,5	0,088
390,9	0,088
391,4	0,089
391,9	0,088
392,3	0,088
392,8	0,088
393,2	0,088
393,7	0,088
394,1	0,087
394,6	0,087
395,1	0,087
395,5	0,086
396	0,085
396,4	0,085
396,9	0,085
397,3	0,085
397,8	0,084
398,2	0,084
398,7	0,084
399,2	0,085
399,6	0,084
400,1	0,084
400,5	0,084
401	0,084
401,4	0,084
401,9	0,084
402,4	0,084
402,8	0,083
403,3	0,084
403,7	0,084
404,2	0,084
404,6	0,084
405,1	0,084
405,5	0,085
406	0,085
406,5	0,085
406,9	0,085
407,4	0,085
407,8	0,086
408,3	0,086
408,7	0,086
409,2	0,085
409,6	0,085
410,1	0,084
410,6	0,084
411	0,083
411,5	0,082
411,9	0,081
412,4	0,081
412,8	0,082
413,3	0,081
413,7	0,082
414,2	0,082
414,7	0,082
415,1	0,082
415,6	0,082
416	0,082
416,5	0,082
416,9	0,081
417,4	0,081
417,8	0,081
418,3	0,08
418,8	0,081
419,2	0,081
419,7	0,081
420,1	0,081
420,6	0,08
421	0,08
421,5	0,081
421,9	0,08
422,4	0,08
422,8	0,08
423,3	0,08
423,8	0,08
424,2	0,08
424,7	0,08
425,1	0,08
425,6	0,079
426	0,079
426,5	0,079
426,9	0,079
427,4	0,079
427,9	0,079
428,3	0,079
428,8	0,079
429,2	0,08
429,7	0,08
430,1	0,081
430,6	0,081
431	0,081
431,5	0,081
431,9	0,081
432,4	0,08
432,8	0,08
433,3	0,079
433,8	0,078
434,2	0,078
434,7	0,078
435,1	0,079
435,6	0,079
436	0,079
436,5	0,079
436,9	0,079
437,4	0,079
437,8	0,079
438,3	0,079
438,8	0,078
439,2	0,078
439,7	0,079
440,1	0,079
440,6	0,079
441	0,079
441,5	0,078
441,9	0,08
442,4	0,079
442,8	0,079
443,3	0,078
443,7	0,078
444,2	0,078
444,7	0,079
445,1	0,078
445,6	0,078
446	0,078
446,5	0,079
446,9	0,078
447,4	0,078
447,8	0,078
448,3	0,079
448,7	0,079
449,2	0,079
449,6	0,078
450,1	0,079
450,6	0,079
451	0,078
451,5	0,077
451,9	0,078
452,4	0,079
452,8	0,079
453,3	0,078
453,7	0,078
454,2	0,078
454,6	0,079
455,1	0,079
455,5	0,079
456	0,08
456,4	0,08
456,9	0,08
457,3	0,08
457,8	0,08
458,3	0,079
458,7	0,078
459,2	0,078
459,6	0,078
460,1	0,078
460,5	0,079
461	0,079
461,4	0,08
461,9	0,08
462,3	0,079
462,8	0,079
463,2	0,078
463,7	0,078
464,1	0,078
464,6	0,078
465	0,078
465,5	0,079
466	0,08
466,4	0,08
466,9	0,08
467,3	0,08
467,8	0,079
468,2	0,079
468,7	0,079
469,1	0,078
469,6	0,079
470	0,079
470,5	0,079
470,9	0,079
471,4	0,079
471,8	0,079
472,3	0,08
472,7	0,08
473,2	0,08
473,6	0,08
474,1	0,08
474,5	0,079
475	0,08
475,4	0,079
475,9	0,079
476,4	0,079
476,8	0,078
477,3	0,078
477,7	0,078
478,2	0,078
478,6	0,078
479,1	0,079
479,5	0,078
480	0,078
480,4	0,077
480,9	0,078
481,3	0,077
481,8	0,077
482,2	0,077
482,7	0,077
483,1	0,078
483,6	0,079
484	0,078
484,5	0,078
484,9	0,078
485,4	0,077
485,8	0,078
486,3	0,077
486,7	0,077
487,2	0,078
487,6	0,079
488,1	0,079
488,5	0,079
489	0,079
489,4	0,079
489,9	0,079
490,4	0,079
490,8	0,079
491,3	0,078
491,7	0,078
492,2	0,077
492,6	0,077
493,1	0,076
493,5	0,076
494	0,075
494,4	0,075
494,9	0,075
495,3	0,075
495,8	0,076
496,2	0,076
496,7	0,077
497,1	0,077
497,6	0,078
498	0,078
498,5	0,079
498,9	0,079
499,4	0,079
499,8	0,08
500,3	0,079
500,7	0,079
501,2	0,078
501,6	0,078
502,1	0,078
502,5	0,078
503	0,077
503,4	0,076
503,9	0,077
504,3	0,077
504,8	0,077
505,2	0,077
505,7	0,077
506,1	0,078
506,6	0,078
507	0,078
507,5	0,078
507,9	0,078
508,4	0,078
508,8	0,078
509,3	0,078
509,7	0,078
510,2	0,077
510,6	0,077
511,1	0,076
511,5	0,076
512	0,076
512,4	0,075
512,9	0,076
513,3	0,077
513,8	0,077
514,2	0,078
514,7	0,077
515,1	0,078
515,6	0,079
516	0,079
516,5	0,078
516,9	0,077
517,4	0,077
517,8	0,077
518,3	0,077
518,7	0,077
519,2	0,077
519,6	0,077
520,1	0,078
520,5	0,077
521	0,077
521,4	0,076
521,9	0,076
522,3	0,076
522,8	0,077
523,2	0,078
523,7	0,078
524,1	0,077
524,6	0,078
525	0,079
525,5	0,079
525,9	0,079
526,4	0,079
526,8	0,079
527,3	0,079
527,7	0,079
528,2	0,078
528,6	0,078
529,1	0,078
529,5	0,078
530	0,077
530,4	0,077
530,9	0,077
531,3	0,077
531,8	0,077
532,2	0,077
532,6	0,076
533,1	0,077
533,5	0,077
534	0,077
534,4	0,077
534,9	0,078
535,3	0,078
535,8	0,078
536,2	0,078
536,7	0,078
537,1	0,079
537,6	0,079
538	0,078
538,5	0,079
538,9	0,079
539,4	0,079
539,8	0,079
540,3	0,079
540,7	0,079
541,2	0,079
541,6	0,079
542,1	0,078
542,5	0,078
543	0,078
543,4	0,078
543,9	0,078
544,3	0,078
544,8	0,079
545,2	0,078
545,7	0,079
546,1	0,078
546,5	0,078
547	0,079
547,4	0,078
547,9	0,077
548,3	0,077
548,8	0,077
549,2	0,077
549,7	0,076
550,1	0,076
550,6	0,076
551	0,077
551,5	0,077
551,9	0,077
552,4	0,077
552,8	0,078
553,3	0,077
553,7	0,077
554,2	0,077
554,6	0,077
555,1	0,077
555,5	0,077
555,9	0,076
556,4	0,077
556,8	0,077
557,3	0,076
557,7	0,076
558,2	0,075
558,6	0,076
559,1	0,075
559,5	0,075
560	0,075
560,4	0,075
560,9	0,075
561,3	0,075
561,8	0,075
562,2	0,076
562,7	0,076
563,1	0,076
563,6	0,077
564	0,076
564,4	0,076
564,9	0,076
565,3	0,075
565,8	0,075
566,2	0,074
566,7	0,074
567,1	0,074
567,6	0,073
568	0,073
568,5	0,073
568,9	0,073
569,4	0,073
569,8	0,073
570,3	0,073
570,7	0,073
571,1	0,073
571,6	0,073
572	0,073
572,5	0,073
572,9	0,072
573,4	0,072
573,8	0,072
574,3	0,072
574,7	0,072
575,2	0,072
575,6	0,072
576,1	0,072
576,5	0,072
576,9	0,071
577,4	0,071
577,8	0,071
578,3	0,071
578,7	0,071
579,2	0,071
579,6	0,071
580,1	0,071
580,5	0,071
581	0,071
581,4	0,07
581,9	0,071
582,3	0,07
582,7	0,07
583,2	0,07
583,6	0,07
584,1	0,07
584,5	0,07
585	0,069
585,4	0,069
585,9	0,069
586,3	0,069
586,8	0,068
587,2	0,069
587,6	0,069
588,1	0,069
588,5	0,068
589	0,068
589,4	0,068
589,9	0,067
590,3	0,067
590,8	0,067
591,2	0,067
591,7	0,067
592,1	0,066
592,5	0,067
593	0,067
593,4	0,067
593,9	0,066
594,3	0,066
594,8	0,066
595,2	0,066
595,7	0,065
596,1	0,065
596,6	0,065
597	0,065
597,4	0,065
597,9	0,066
598,3	0,066
598,8	0,066
599,2	0,065
599,7	0,065
600,1	0,065
600,6	0,065
601	0,064
601,4	0,064
601,9	0,063
602,3	0,064
602,8	0,063
603,2	0,063
603,7	0,063
604,1	0,063
604,6	0,063
605	0,063
605,4	0,063
605,9	0,063
606,3	0,063
606,8	0,063
607,2	0,063
607,7	0,063
608,1	0,062
608,6	0,062
609	0,062
609,4	0,061
609,9	0,061
610,3	0,062
610,8	0,061
611,2	0,061
611,7	0,061
612,1	0,061
612,6	0,061
613	0,061
613,4	0,06
613,9	0,06
614,3	0,06
614,8	0,06
615,2	0,06
615,7	0,06
616,1	0,06
616,6	0,06
617	0,06
617,4	0,059
617,9	0,059
618,3	0,059
618,8	0,059
619,2	0,059
619,7	0,058
620,1	0,058
620,5	0,059
621	0,058
621,4	0,057
621,9	0,057
622,3	0,057
622,8	0,057
623,2	0,057
623,6	0,057
624,1	0,057
624,5	0,057
625	0,057
625,4	0,057
625,9	0,056
626,3	0,056
626,8	0,056
627,2	0,056
627,6	0,056
628,1	0,055
628,5	0,056
629	0,056
629,4	0,056
629,9	0,056
630,3	0,056
630,7	0,055
631,2	0,055
631,6	0,054
632,1	0,055
632,5	0,054
633	0,053
633,4	0,053
633,8	0,053
634,3	0,053
634,7	0,053
635,2	0,053
635,6	0,052
636,1	0,053
636,5	0,053
636,9	0,053
637,4	0,052
637,8	0,053
638,3	0,052
638,7	0,052
639,2	0,051
639,6	0,051
640	0,051
640,5	0,051
640,9	0,05
641,4	0,05
641,8	0,05
642,2	0,05
642,7	0,05
643,1	0,05
643,6	0,05
644	0,049
644,5	0,048
644,9	0,049
645,3	0,049
645,8	0,049
646,2	0,049
646,7	0,048
647,1	0,048
647,6	0,048
648	0,048
648,4	0,048
648,9	0,048
649,3	0,047
649,8	0,047
650,2	0,046
650,6	0,047
651,1	0,046
651,5	0,046
652	0,046
652,4	0,045
652,9	0,045
653,3	0,045
653,7	0,045
654,2	0,045
654,6	0,045
655,1	0,044
655,5	0,029
655,9	0,033
656,4	0,033
656,8	0,033
657,3	0,033
657,7	0,031
658,2	0,028
658,6	0,046
659	0,044
659,5	0,043
659,9	0,043
660,4	0,043
660,8	0,043
661,2	0,043
661,7	0,043
662,1	0,043
662,6	0,042
663	0,042
663,4	0,042
663,9	0,042
664,3	0,042
664,8	0,042
665,2	0,042
665,6	0,042
666,1	0,042
666,5	0,041
667	0,041
667,4	0,041
667,9	0,04
668,3	0,04
668,7	0,04
669,2	0,039
669,6	0,039
670,1	0,039
670,5	0,039
670,9	0,039
671,4	0,039
671,8	0,038
672,3	0,038
672,7	0,038
673,1	0,038
673,6	0,038
674	0,038
674,5	0,038
674,9	0,038
675,3	0,038
675,8	0,038
676,2	0,038
676,7	0,037
677,1	0,037
677,5	0,037
678	0,037
678,4	0,037
678,9	0,036
679,3	0,036
679,7	0,036
680,2	0,036
680,6	0,036
681,1	0,036
681,5	0,035
681,9	0,036
682,4	0,036
682,8	0,035
683,3	0,035
683,7	0,035
684,1	0,035
684,6	0,035
685	0,034
685,5	0,034
685,9	0,034
686,3	0,034
686,8	0,033
687,2	0,033
687,7	0,033
688,1	0,034
688,5	0,033
689	0,033
689,4	0,033
689,9	0,033
690,3	0,033
690,7	0,033
691,2	0,032
691,6	0,032
692	0,032
692,5	0,032
692,9	0,032
693,4	0,031
693,8	0,031
694,2	0,031
694,7	0,031
695,1	0,031
695,6	0,031
696	0,031
696,4	0,03
696,9	0,031
697,3	0,03
697,8	0,03
698,2	0,03
698,6	0,03
699,1	0,03
699,5	0,03
699,9	0,03
700,4	0,029
700,8	0,029
701,3	0,029
701,7	0,029
702,1	0,028
702,6	0,028
703	0,028
703,5	0,028
703,9	0,028
704,3	0,028
704,8	0,028
705,2	0,027
705,6	0,027
706,1	0,027
706,5	0,027
707	0,027
707,4	0,027
707,8	0,027
708,3	0,027
708,7	0,027
709,2	0,026
709,6	0,026
710	0,026
710,5	0,026
710,9	0,026
711,3	0,026
711,8	0,026
712,2	0,026
712,7	0,026
713,1	0,026
713,5	0,026
714	0,026
714,4	0,026
714,8	0,026
715,3	0,026
715,7	0,026
716,2	0,026
716,6	0,026
717	0,025
717,5	0,025
717,9	0,024
718,3	0,025
718,8	0,025
719,2	0,025
719,7	0,025
720,1	0,025
720,5	0,024
721	0,024
721,4	0,024
721,8	0,024
722,3	0,023
722,7	0,023
723,2	0,024
723,6	0,024
724	0,024
724,5	0,024
724,9	0,023
725,3	0,023
725,8	0,023
726,2	0,023
726,7	0,023
727,1	0,023
727,5	0,022
728	0,023
728,4	0,022
728,8	0,022
729,3	0,022
729,7	0,022
730,1	0,022
730,6	0,022
731	0,022
731,5	0,022
731,9	0,021
732,3	0,021
732,8	0,021
733,2	0,022
733,6	0,021
734,1	0,022
734,5	0,022
734,9	0,022
735,4	0,022
735,8	0,022
736,3	0,021
736,7	0,022
737,1	0,022
737,6	0,022
738	0,022
738,4	0,022
738,9	0,022
739,3	0,021
739,7	0,021
740,2	0,021
740,6	0,021
741,1	0,02
741,5	0,021
741,9	0,02
742,4	0,02
742,8	0,02
743,2	0,02
743,7	0,02
744,1	0,021
744,5	0,02
745	0,021
745,4	0,021
745,8	0,021
746,3	0,02
746,7	0,02
747,2	0,02
747,6	0,02
748	0,02
748,5	0,02
748,9	0,019
749,3	0,019
749,8	0,019
750,2	0,019
750,6	0,019
751,1	0,019
751,5	0,019
751,9	0,019
752,4	0,019
752,8	0,019
753,3	0,019
753,7	0,019
754,1	0,019
754,6	0,019
755	0,019
755,4	0,018
755,9	0,018
756,3	0,018
756,7	0,018
757,2	0,018
757,6	0,018
758	0,018
758,5	0,018
758,9	0,018
759,3	0,017
759,8	0,017
760,2	0,017
760,6	0,017
761,1	0,018
761,5	0,017
761,9	0,017
762,4	0,017
762,8	0,017
763,3	0,017
763,7	0,017
764,1	0,017
764,6	0,017
765	0,017
765,4	0,017
765,9	0,017
766,3	0,016
766,7	0,016
767,2	0,017
767,6	0,017
768	0,017
768,5	0,017
768,9	0,017
769,3	0,018
769,8	0,017
770,2	0,017
770,6	0,017
771,1	0,017
771,5	0,016
771,9	0,016
772,4	0,016
772,8	0,016
773,2	0,016
773,7	0,016
774,1	0,016
774,5	0,016
775	0,016
775,4	0,016
775,8	0,016
776,3	0,016
776,7	0,016
777,1	0,016
777,6	0,016
778	0,016
778,4	0,015
778,9	0,015
779,3	0,015
779,7	0,015
780,2	0,015
780,6	0,015
781	0,015
781,5	0,015
781,9	0,015
782,3	0,016
782,8	0,016
783,2	0,015
783,6	0,015
784,1	0,015
784,5	0,015
784,9	0,015
785,4	0,014
785,8	0,014
786,2	0,014
786,7	0,014
787,1	0,014
787,5	0,014
788	0,014
788,4	0,015
788,8	0,015
789,3	0,015
789,7	0,014
790,1	0,014
790,6	0,014
791	0,014
791,4	0,014
791,9	0,014
792,3	0,014
792,7	0,014
793,2	0,014
793,6	0,014
794	0,014
794,5	0,014
794,9	0,014
795,3	0,014
795,8	0,014
796,2	0,014
796,6	0,014
797,1	0,014
797,5	0,014
797,9	0,014
798,4	0,014
798,8	0,014
799,2	0,013
799,7	0,014
800,1	0,014
800,5	0,013
801	0,013
801,4	0,013
801,8	0,013
802,2	0,013
802,7	0,013
803,1	0,013
803,5	0,013
804	0,013
804,4	0,013
804,8	0,013
805,3	0,013
805,7	0,013
806,1	0,013
806,6	0,013
807	0,013
807,4	0,013
807,9	0,013
808,3	0,012
808,7	0,012
809,2	0,013
809,6	0,013
810	0,013
810,4	0,013
810,9	0,013
811,3	0,013
811,7	0,013
812,2	0,013
812,6	0,012
813	0,012
813,5	0,012
813,9	0,012
814,3	0,012
814,8	0,012
815,2	0,012
815,6	0,012
816,1	0,013
816,5	0,012
816,9	0,012
817,3	0,012
817,8	0,012
818,2	0,012
818,6	0,012
819,1	0,012
819,5	0,012
819,9	0,012
820,4	0,012
820,8	0,012
821,2	0,012
821,7	0,012
822,1	0,012
822,5	0,011
822,9	0,011
823,4	0,011
823,8	0,011
824,2	0,011
824,7	0,011
825,1	0,012
825,5	0,012
826	0,012
826,4	0,012
826,8	0,012
827,3	0,011
827,7	0,011
828,1	0,011
828,5	0,011
829	0,011
829,4	0,011
829,8	0,011
830,3	0,011
830,7	0,011
831,1	0,011
831,6	0,012
832	0,012
832,4	0,011
832,8	0,011
833,3	0,011
833,7	0,011
834,1	0,01
834,6	0,01
835	0,01
835,4	0,01
835,8	0,011
836,3	0,011
836,7	0,011
837,1	0,011
837,6	0,011
838	0,011
838,4	0,011
838,9	0,011
839,3	0,011
839,7	0,011
840,1	0,011
840,6	0,011
841	0,011
841,4	0,011
841,9	0,011
842,3	0,011
842,7	0,011
843,1	0,011
843,6	0,011
844	0,011
844,4	0,01
844,9	0,01
845,3	0,01
845,7	0,01
846,2	0,01
846,6	0,01
847	0,01
847,4	0,01
847,9	0,011
848,3	0,01
848,7	0,01
849,2	0,011
849,6	0,011
850	0,011
850,4	0,01
850,9	0,01
851,3	0,01
851,7	0,01
852,2	0,01
852,6	0,009
853	0,009
853,4	0,009
853,9	0,009
854,3	0,009
854,7	0,009
855,2	0,009
855,6	0,009
856	0,009
856,4	0,01
856,9	0,01
857,3	0,009
857,7	0,009
858,2	0,009
858,6	0,009
859	0,009
859,4	0,008
859,9	0,009
860,3	0,009
860,7	0,009
861,1	0,009
861,6	0,009
862	0,009
862,4	0,009
862,9	0,009
863,3	0,009
863,7	0,009
864,1	0,009
864,6	0,009
865	0,009
865,4	0,009
865,9	0,009
866,3	0,009
866,7	0,009
867,1	0,009
867,6	0,009
868	0,009
868,4	0,009
868,8	0,01
869,3	0,01
869,7	0,009
870,1	0,009
870,6	0,009
871	0,009
871,4	0,009
871,8	0,009
872,3	0,009
872,7	0,009
873,1	0,009
873,5	0,009
874	0,009
874,4	0,009
874,8	0,008
875,3	0,008
875,7	0,008
876,1	0,008
876,5	0,008
877	0,008
877,4	0,008
877,8	0,008
878,2	0,007
878,7	0,008
879,1	0,008
879,5	0,008
879,9	0,008
880,4	0,008
880,8	0,008
881,2	0,007
881,7	0,008
882,1	0,008
882,5	0,007
882,9	0,007
883,4	0,007
883,8	0,007
884,2	0,007
884,6	0,007
885,1	0,007
885,5	0,008
885,9	0,008
886,3	0,008
886,8	0,008
887,2	0,008
887,6	0,009
888	0,008
888,5	0,008
888,9	0,008
889,3	0,008
889,8	0,008
890,2	0,007
890,6	0,007
891	0,007
891,5	0,007
891,9	0,007
892,3	0,007
892,7	0,007
893,2	0,007
893,6	0,008
894	0,008
894,4	0,008
894,9	0,007
895,3	0,008
895,7	0,008
896,1	0,008
896,6	0,008
897	0,008
897,4	0,007
897,8	0,008
898,3	0,008
898,7	0,008
899,1	0,008
899,5	0,008
900	0,007
900,4	0,007
900,8	0,007
901,2	0,007
901,7	0,008
902,1	0,007
902,5	0,007
902,9	0,008
903,4	0,007
903,8	0,007
904,2	0,007
904,6	0,007
905,1	0,007
905,5	0,007
905,9	0,007
906,3	0,007
906,8	0,007
907,2	0,007
907,6	0,007
908	0,007
908,5	0,007
908,9	0,007
909,3	0,007
909,7	0,007
910,2	0,006
910,6	0,006
911	0,006
911,4	0,006
911,9	0,007
912,3	0,006
912,7	0,006
913,1	0,007
913,6	0,007
914	0,006
914,4	0,007
914,8	0,007
915,3	0,007
915,7	0,007
916,1	0,006
916,5	0,006
916,9	0,007
917,4	0,007
917,8	0,007
918,2	0,007
918,6	0,007
919,1	0,007
919,5	0,007
919,9	0,007
920,3	0,007
920,8	0,007
921,2	0,007
921,6	0,007
922	0,007
922,5	0,007
922,9	0,007
923,3	0,006
923,7	0,006
924,2	0,006
924,6	0,007
925	0,007
925,4	0,007
925,8	0,007
926,3	0,007
926,7	0,007
927,1	0,007
927,5	0,007
928	0,007
928,4	0,007
928,8	0,007
929,2	0,008
929,7	0,008
930,1	0,008
930,5	0,008
930,9	0,008
931,3	0,008
931,8	0,007
932,2	0,008
932,6	0,008
933	0,008
933,5	0,008
933,9	0,008
934,3	0,008
934,7	0,008
935,2	0,008
935,6	0,008
936	0,007
936,4	0,007
936,8	0,007
937,3	0,006
937,7	0,006
938,1	0,006
938,5	0,006
939	0,007
939,4	0,006
939,8	0,006
940,2	0,007
940,6	0,007
941,1	0,007
941,5	0,007
941,9	0,007
942,3	0,007
942,8	0,008
943,2	0,007
943,6	0,008
944	0,008
944,4	0,008
944,9	0,008
945,3	0,009
945,7	0,009
946,1	0,009
946,6	0,008
947	0,008
947,4	0,008
947,8	0,008
948,2	0,008
948,7	0,008
949,1	0,008
949,5	0,008
949,9	0,008
950,3	0,007
950,8	0,007
951,2	0,007
951,6	0,008
952	0,008
952,5	0,009
952,9	0,008
953,3	0,008
953,7	0,008
954,1	0,008
954,6	0,008
955	0,007
955,4	0,008
955,8	0,008
956,2	0,009
956,7	0,009
957,1	0,01
957,5	0,009
957,9	0,01
958,3	0,01
958,8	0,01
959,2	0,01
959,6	0,01
960	0,009
960,5	0,01
960,9	0,01
961,3	0,01
961,7	0,011
962,1	0,011
962,6	0,012
963	0,011
963,4	0,011
963,8	0,01
964,2	0,009
964,7	0,008
965,1	0,008
965,5	0,008
965,9	0,009
966,3	0,009
966,8	0,009
967,2	0,01
967,6	0,01
968	0,009
968,4	0,009
968,9	0,008
969,3	0,008
969,7	0,007
970,1	0,007
970,5	0,007
971	0,008
971,4	0,007
971,8	0,008
972,2	0,008
972,6	0,008
973,1	0,008
973,5	0,008
973,9	0,008
974,3	0,008
974,7	0,008
975,2	0,008
975,6	0,008
976	0,009
976,4	0,009
976,8	0,009
977,3	0,009
977,7	0,008
978,1	0,008
978,5	0,008
978,9	0,008
979,4	0,007
979,8	0,007
980,2	0,007
980,6	0,007
981	0,007
981,5	0,006
981,9	0,007
982,3	0,007
982,7	0,006
983,1	0,007
983,6	0,007
984	0,007
984,4	0,008
984,8	0,007
985,2	0,006
985,6	0,007
986,1	0,007
986,5	0,006
986,9	0,006
987,3	0,006
987,7	0,006
988,2	0,007
988,6	0,006
989	0,006
989,4	0,006
989,8	0,006
990,3	0,006
990,7	0,006
991,1	0,006
991,5	0,006
991,9	0,006
992,3	0,005
992,8	0,005
993,2	0,004
993,6	0,005
994	0,005
994,4	0,005
994,9	0,005
995,3	0,006
995,7	0,006
996,1	0,006
996,5	0,006
996,9	0,006
997,4	0,005
997,8	0,005
998,2	0,004
998,6	0,003
999	0,004
999,5	0,003
999,9	0,003
1000,3	0,003
1000,7	0,003
1001,1	0,004
1001,5	0,004
1002	0,004
1002,4	0,005
1002,8	0,005
1003,2	0,004
1003,6	0,004
1004	0,004
1004,5	0,004
1004,9	0,003
1005,3	0,003
1005,7	0,002
1006,1	0,002
1006,6	0,002
1007	0,001
1007,4	0,001
1007,8	0,002
1008,2	0,003
1008,6	0,004
1009,1	0,004
1009,5	0,005
1009,9	0,005
1010,3	0,005
1010,7	0,004
1011,1	0,003
1011,6	0,003
1012	0,003
1012,4	0,003
1012,8	0,003
1013,2	0,003
1013,6	0,004
1014,1	0,005
1014,5	0,005
1014,9	0,005
1015,3	0,005
1015,7	0,005
1016,1	0,005
1016,6	0,004
1017	0,004
1017,4	0,004
1017,8	0,003
1018,2	0,002
1018,6	0,001
1019,1	0,001
1019,5	0,002
1019,9	0,001
1020,3	0,001
1020,7	0,002
1021,1	0,003
1021,6	0,003
1022	0,003
1022,4	0,004
1022,8	0,004
1023,2	0,003
1023,6	0,003
1024,1	0,003
1024,5	0,002
1024,9	0,002
1025,3	0,002
1025,7	0,002
1026,1	0,003
1026,6	0,003
1027	0,003
1027,4	0,003
1027,8	0,003
1028,2	0,002
1028,6	0,002
1029	0,002
1029,5	0,002
1029,9	0,002
1030,3	0,002
1030,7	0,002
1031,1	0,002
1031,5	0,001
1032	0,001
1032,4	0,001
1032,8	0,001
1033,2	0
1033,6	0
1034	0,001
1034,4	0,001
1034,9	0,001
1035,3	0,001
1035,7	0,001
1036,1	0,001
1036,5	0,002
1036,9	0,002
1037,4	0,002
1037,8	0,003
1038,2	0,003
1038,6	0,002
1039	0,002
1039,4	0,002
1039,8	0,002
1040,3	0,002
1040,7	0,002
1041,1	0,001
1041,5	0,002
1041,9	0,002
1042,3	0,002
1042,7	0,002
1043,2	0,001
1043,6	0,002
1044	0,003
1044,4	0,003
1044,8	0,003
1045,2	0,003
1045,6	0,003
1046,1	0,003
1046,5	0,002
1046,9	0,002
1047,3	0,001
1047,7	0,001
1048,1	0,002
1048,5	0,002
1049	0,002
1049,4	0,002
1049,8	0,003
1050,2	0,004
1050,6	0,003
1051	0,003
1051,4	0,002
1051,9	0,002
1052,3	0,003
1052,7	0,002
1053,1	0,002
1053,5	0,003
1053,9	0,004
1054,3	0,005
1054,8	0,005
1055,2	0,004
1055,6	0,004
1056	0,003
1056,4	0,004
1056,8	0,005
1057,2	0,005
1057,6	0,005
1058,1	0,005
1058,5	0,005
1058,9	0,006
1059,3	0,005
1059,7	0,003
1060,1	0,004
1060,5	0,004
1061	0,005
1061,4	0,004
1061,8	0,004
1062,2	0,004
1062,6	0,004
1063	0,003
1063,4	0,002
1063,8	0,001
1064,3	0,002
1064,7	0,001
1065,1	0,002
1065,5	0,001
1065,9	0,002
1066,3	0,002
1066,7	0,002
1067,1	0,002
1067,6	0,002
1068	0,002
1068,4	0,002
1068,8	0,001
1069,2	0,001
1069,6	0,001
1070	0,002
1070,4	0,002
1070,9	0,002
1071,3	0,001
1071,7	0,002
1072,1	0,003
1072,5	0,004
1072,9	0,003
1073,3	0,003
1073,7	0,002
1074,2	0,003
1074,6	0,003
1075	0,002
1075,4	0,001
1075,8	0
1076,2	-0,001
1076,6	0
1077	0,002
1077,5	0,002
1077,9	0,004
1078,3	0,003
1078,7	0,005
1079,1	0,007
1079,5	0,005
1079,9	0,004
1080,3	0,004
1080,7	0,003
1081,2	0,003
1081,6	0,002
1082	0,004
1082,4	0,005
1082,8	0,004
1083,2	0,004
1083,6	0,006
1084	0,007
1084,5	0,007
1084,9	0,005
1085,3	0,005
1085,7	0,006
1086,1	0,008
1086,5	0,005
1086,9	0,006
1087,3	0,005
1087,7	0,006
1088,2	0,007
1088,6	0,009
1089	0,009
1089,4	0,01
1089,8	0,011
1090,2	0,012
1090,6	0,012
1091	0,012
1091,4	0,014
1091,9	0,013
1092,3	0,015
1092,7	0,012
1093,1	0,01
1093,5	0,012
1093,9	0,011
1094,3	0,014
1094,7	0,009
1095,1	0,006
1095,5	0,011
1096	0,007
1096,4	0,005
1096,8	0,005
1097,2	-0,006
1097,6	0,001
1098	-0,008
1098,4	0,001
1098,8	0,008
1099,2	0,002
1099,6	0,002
1100,1	0,005
1100,5	0,003
1100,9	0,019
1101,3	0,01
1101,7	0,011
1102,1	0,016
1102,5	0,016
1102,9	0,019
1103,3	0,02
1103,7	0,01
1104,2	0,01
1104,6	0,018
1105	0,029
1105,4	0,029
1105,8	0,034
1106,2	0,041
1106,6	0,083
1107	0,091
1107,4	0,084
1107,8	0,147
1108,3	-0
