Data from Absorbance_19-19-31-436.txt Node
Date: Tue Nov 15 19:19:31 MSK 2022
User: vat
Spectrometer: MAYP114033
Trigger mode: 0
Integration Time (sec): 8,000000E-3
Scans to average: 10
Electric dark correction enabled: true
Nonlinearity correction enabled: false
Boxcar width: 3
XAxis mode: Wavelengths
Number of Pixels in Spectrum: 2068
>>>>>Begin Spectral Data<<<<<
199,4	-0
199,9	0,043
200,4	-0,108
200,8	0,001
201,3	0,062
201,8	0,063
202,2	0,09
202,7	0,089
203,2	0,094
203,6	0,119
204,1	0,123
204,6	0,114
205	0,108
205,5	0,095
206	0,111
206,4	0,103
206,9	0,103
207,4	0,068
207,8	0,042
208,3	0,049
208,8	0,065
209,2	0,045
209,7	0,048
210,2	0,077
210,6	0,093
211,1	0,13
211,5	0,115
212	0,108
212,5	0,126
212,9	0,148
213,4	0,111
213,9	0,122
214,3	0,101
214,8	0,088
215,3	0,08
215,7	0,044
216,2	0,01
216,7	0,04
217,1	0,026
217,6	0,022
218,1	0,012
218,5	-0,007
219	0,006
219,5	0,013
219,9	-0,002
220,4	0,006
220,9	0,031
221,3	0,056
221,8	0,091
222,3	0,107
222,7	0,121
223,2	0,128
223,6	0,115
224,1	0,096
224,6	0,1
225	0,106
225,5	0,104
226	0,115
226,4	0,106
226,9	0,131
227,4	0,165
227,8	0,157
228,3	0,118
228,8	0,106
229,2	0,086
229,7	0,111
230,2	0,098
230,6	0,068
231,1	0,089
231,5	0,095
232	0,114
232,5	0,116
232,9	0,11
233,4	0,099
233,9	0,07
234,3	0,03
234,8	0,029
235,3	0,016
235,7	0,029
236,2	0,016
236,7	-0,004
237,1	0,02
237,6	0,054
238,1	0,057
238,5	0,055
239	0,053
239,4	0,059
239,9	0,086
240,4	0,085
240,8	0,067
241,3	0,07
241,8	0,081
242,2	0,081
242,7	0,071
243,2	0,088
243,6	0,093
244,1	0,107
244,6	0,131
245	0,129
245,5	0,131
245,9	0,134
246,4	0,124
246,9	0,151
247,3	0,121
247,8	0,107
248,3	0,11
248,7	0,107
249,2	0,109
249,7	0,122
250,1	0,105
250,6	0,141
251	0,146
251,5	0,139
252	0,142
252,4	0,148
252,9	0,155
253,4	0,167
253,8	0,171
254,3	0,175
254,8	0,177
255,2	0,183
255,7	0,184
256,1	0,18
256,6	0,182
257,1	0,181
257,5	0,182
258	0,185
258,5	0,183
258,9	0,18
259,4	0,179
259,9	0,175
260,3	0,174
260,8	0,17
261,2	0,168
261,7	0,166
262,2	0,167
262,6	0,166
263,1	0,166
263,6	0,165
264	0,165
264,5	0,165
264,9	0,165
265,4	0,164
265,9	0,162
266,3	0,161
266,8	0,16
267,3	0,158
267,7	0,156
268,2	0,156
268,7	0,156
269,1	0,157
269,6	0,156
270	0,155
270,5	0,153
271	0,152
271,4	0,15
271,9	0,15
272,4	0,148
272,8	0,147
273,3	0,146
273,7	0,146
274,2	0,146
274,7	0,145
275,1	0,145
275,6	0,144
276,1	0,143
276,5	0,144
277	0,143
277,4	0,142
277,9	0,14
278,4	0,139
278,8	0,139
279,3	0,138
279,8	0,137
280,2	0,135
280,7	0,134
281,1	0,135
281,6	0,134
282,1	0,133
282,5	0,133
283	0,133
283,4	0,132
283,9	0,131
284,4	0,13
284,8	0,129
285,3	0,129
285,8	0,129
286,2	0,129
286,7	0,129
287,1	0,129
287,6	0,128
288,1	0,128
288,5	0,127
289	0,126
289,5	0,124
289,9	0,123
290,4	0,123
290,8	0,123
291,3	0,124
291,8	0,123
292,2	0,123
292,7	0,124
293,1	0,125
293,6	0,124
294,1	0,124
294,5	0,123
295	0,122
295,5	0,122
295,9	0,122
296,4	0,121
296,8	0,121
297,3	0,121
297,8	0,121
298,2	0,12
298,7	0,12
299,1	0,12
299,6	0,12
300,1	0,12
300,5	0,12
301	0,119
301,5	0,12
301,9	0,119
302,4	0,118
302,8	0,12
303,3	0,12
303,8	0,12
304,2	0,12
304,7	0,12
305,1	0,121
305,6	0,121
306,1	0,121
306,5	0,121
307	0,121
307,4	0,122
307,9	0,122
308,4	0,123
308,8	0,125
309,3	0,124
309,8	0,124
310,2	0,124
310,7	0,125
311,1	0,125
311,6	0,125
312,1	0,125
312,5	0,126
313	0,127
313,4	0,127
313,9	0,127
314,4	0,128
314,8	0,128
315,3	0,129
315,7	0,13
316,2	0,13
316,7	0,131
317,1	0,13
317,6	0,131
318	0,131
318,5	0,131
319	0,13
319,4	0,131
319,9	0,132
320,3	0,132
320,8	0,132
321,3	0,132
321,7	0,133
322,2	0,134
322,6	0,133
323,1	0,134
323,6	0,135
324	0,136
324,5	0,137
324,9	0,137
325,4	0,138
325,9	0,138
326,3	0,138
326,8	0,137
327,2	0,138
327,7	0,139
328,2	0,139
328,6	0,14
329,1	0,141
329,5	0,141
330	0,142
330,5	0,142
330,9	0,143
331,4	0,143
331,8	0,142
332,3	0,143
332,8	0,144
333,2	0,144
333,7	0,143
334,1	0,144
334,6	0,144
335,1	0,144
335,5	0,144
336	0,144
336,4	0,144
336,9	0,145
337,4	0,144
337,8	0,143
338,3	0,144
338,7	0,144
339,2	0,143
339,7	0,143
340,1	0,143
340,6	0,143
341	0,142
341,5	0,142
342	0,14
342,4	0,14
342,9	0,139
343,3	0,138
343,8	0,138
344,2	0,138
344,7	0,137
345,2	0,137
345,6	0,136
346,1	0,136
346,5	0,135
347	0,135
347,5	0,133
347,9	0,133
348,4	0,132
348,8	0,132
349,3	0,13
349,8	0,129
350,2	0,128
350,7	0,127
351,1	0,126
351,6	0,126
352	0,125
352,5	0,125
353	0,124
353,4	0,123
353,9	0,123
354,3	0,122
354,8	0,122
355,3	0,121
355,7	0,12
356,2	0,12
356,6	0,12
357,1	0,119
357,5	0,118
358	0,117
358,5	0,117
358,9	0,116
359,4	0,115
359,8	0,114
360,3	0,114
360,8	0,114
361,2	0,115
361,7	0,114
362,1	0,114
362,6	0,113
363	0,113
363,5	0,112
364	0,111
364,4	0,109
364,9	0,109
365,3	0,109
365,8	0,108
366,3	0,108
366,7	0,108
367,2	0,108
367,6	0,108
368,1	0,108
368,5	0,108
369	0,108
369,5	0,107
369,9	0,106
370,4	0,105
370,8	0,104
371,3	0,104
371,7	0,102
372,2	0,102
372,7	0,101
373,1	0,101
373,6	0,1
374	0,099
374,5	0,099
374,9	0,099
375,4	0,098
375,9	0,098
376,3	0,099
376,8	0,099
377,2	0,1
377,7	0,1
378,2	0,1
378,6	0,1
379,1	0,099
379,5	0,099
380	0,099
380,4	0,098
380,9	0,097
381,4	0,096
381,8	0,096
382,3	0,096
382,7	0,095
383,2	0,095
383,6	0,094
384,1	0,094
384,6	0,095
385	0,094
385,5	0,094
385,9	0,094
386,4	0,093
386,8	0,093
387,3	0,093
387,7	0,093
388,2	0,094
388,7	0,094
389,1	0,093
389,6	0,093
390	0,093
390,5	0,092
390,9	0,092
391,4	0,092
391,9	0,091
392,3	0,091
392,8	0,092
393,2	0,092
393,7	0,091
394,1	0,091
394,6	0,091
395,1	0,09
395,5	0,09
396	0,09
396,4	0,089
396,9	0,09
397,3	0,089
397,8	0,09
398,2	0,09
398,7	0,089
399,2	0,089
399,6	0,09
400,1	0,089
400,5	0,089
401	0,089
401,4	0,089
401,9	0,089
402,4	0,088
402,8	0,088
403,3	0,088
403,7	0,087
404,2	0,087
404,6	0,087
405,1	0,087
405,5	0,087
406	0,087
406,5	0,087
406,9	0,087
407,4	0,087
407,8	0,087
408,3	0,088
408,7	0,087
409,2	0,087
409,6	0,087
410,1	0,087
410,6	0,087
411	0,087
411,5	0,087
411,9	0,086
412,4	0,086
412,8	0,087
413,3	0,086
413,7	0,085
414,2	0,086
414,7	0,086
415,1	0,086
415,6	0,086
416	0,086
416,5	0,086
416,9	0,086
417,4	0,086
417,8	0,084
418,3	0,084
418,8	0,085
419,2	0,085
419,7	0,085
420,1	0,084
420,6	0,084
421	0,085
421,5	0,084
421,9	0,083
422,4	0,083
422,8	0,082
423,3	0,082
423,8	0,082
424,2	0,081
424,7	0,082
425,1	0,082
425,6	0,082
426	0,082
426,5	0,082
426,9	0,082
427,4	0,083
427,9	0,083
428,3	0,083
428,8	0,082
429,2	0,082
429,7	0,082
430,1	0,082
430,6	0,082
431	0,081
431,5	0,082
431,9	0,081
432,4	0,081
432,8	0,081
433,3	0,081
433,8	0,081
434,2	0,081
434,7	0,08
435,1	0,081
435,6	0,081
436	0,08
436,5	0,08
436,9	0,08
437,4	0,081
437,8	0,081
438,3	0,08
438,8	0,08
439,2	0,081
439,7	0,081
440,1	0,081
440,6	0,081
441	0,082
441,5	0,082
441,9	0,082
442,4	0,082
442,8	0,082
443,3	0,081
443,7	0,081
444,2	0,081
444,7	0,081
445,1	0,081
445,6	0,081
446	0,082
446,5	0,082
446,9	0,082
447,4	0,082
447,8	0,082
448,3	0,081
448,7	0,081
449,2	0,08
449,6	0,081
450,1	0,081
450,6	0,081
451	0,08
451,5	0,079
451,9	0,079
452,4	0,08
452,8	0,08
453,3	0,079
453,7	0,079
454,2	0,08
454,6	0,081
455,1	0,081
455,5	0,081
456	0,08
456,4	0,081
456,9	0,082
457,3	0,082
457,8	0,081
458,3	0,081
458,7	0,081
459,2	0,081
459,6	0,081
460,1	0,081
460,5	0,081
461	0,081
461,4	0,081
461,9	0,081
462,3	0,081
462,8	0,081
463,2	0,08
463,7	0,08
464,1	0,081
464,6	0,082
465	0,082
465,5	0,082
466	0,082
466,4	0,083
466,9	0,082
467,3	0,082
467,8	0,082
468,2	0,081
468,7	0,081
469,1	0,081
469,6	0,08
470	0,081
470,5	0,082
470,9	0,081
471,4	0,082
471,8	0,081
472,3	0,082
472,7	0,082
473,2	0,082
473,6	0,082
474,1	0,083
474,5	0,082
475	0,083
475,4	0,083
475,9	0,083
476,4	0,083
476,8	0,082
477,3	0,082
477,7	0,082
478,2	0,081
478,6	0,082
479,1	0,082
479,5	0,082
480	0,083
480,4	0,082
480,9	0,083
481,3	0,083
481,8	0,083
482,2	0,082
482,7	0,081
483,1	0,081
483,6	0,082
484	0,082
484,5	0,082
484,9	0,083
485,4	0,083
485,8	0,084
486,3	0,084
486,7	0,084
487,2	0,084
487,6	0,084
488,1	0,084
488,5	0,084
489	0,084
489,4	0,084
489,9	0,084
490,4	0,084
490,8	0,085
491,3	0,085
491,7	0,086
492,2	0,086
492,6	0,085
493,1	0,085
493,5	0,084
494	0,084
494,4	0,084
494,9	0,083
495,3	0,084
495,8	0,084
496,2	0,084
496,7	0,084
497,1	0,084
497,6	0,085
498	0,085
498,5	0,085
498,9	0,086
499,4	0,087
499,8	0,087
500,3	0,087
500,7	0,087
501,2	0,087
501,6	0,089
502,1	0,088
502,5	0,089
503	0,088
503,4	0,089
503,9	0,09
504,3	0,089
504,8	0,088
505,2	0,088
505,7	0,088
506,1	0,088
506,6	0,088
507	0,088
507,5	0,088
507,9	0,089
508,4	0,089
508,8	0,089
509,3	0,089
509,7	0,089
510,2	0,089
510,6	0,089
511,1	0,09
511,5	0,09
512	0,09
512,4	0,089
512,9	0,09
513,3	0,091
513,8	0,091
514,2	0,092
514,7	0,091
515,1	0,092
515,6	0,093
516	0,092
516,5	0,092
516,9	0,092
517,4	0,092
517,8	0,092
518,3	0,093
518,7	0,093
519,2	0,093
519,6	0,093
520,1	0,093
520,5	0,093
521	0,092
521,4	0,092
521,9	0,093
522,3	0,093
522,8	0,093
523,2	0,094
523,7	0,094
524,1	0,093
524,6	0,093
525	0,093
525,5	0,094
525,9	0,094
526,4	0,094
526,8	0,095
527,3	0,096
527,7	0,096
528,2	0,096
528,6	0,096
529,1	0,096
529,5	0,096
530	0,095
530,4	0,095
530,9	0,095
531,3	0,095
531,8	0,095
532,2	0,095
532,6	0,096
533,1	0,096
533,5	0,097
534	0,096
534,4	0,096
534,9	0,096
535,3	0,096
535,8	0,095
536,2	0,095
536,7	0,096
537,1	0,095
537,6	0,095
538	0,095
538,5	0,095
538,9	0,096
539,4	0,096
539,8	0,096
540,3	0,097
540,7	0,097
541,2	0,098
541,6	0,097
542,1	0,097
542,5	0,097
543	0,098
543,4	0,097
543,9	0,097
544,3	0,097
544,8	0,097
545,2	0,097
545,7	0,097
546,1	0,097
546,5	0,097
547	0,097
547,4	0,097
547,9	0,097
548,3	0,096
548,8	0,096
549,2	0,096
549,7	0,095
550,1	0,096
550,6	0,096
551	0,096
551,5	0,096
551,9	0,097
552,4	0,097
552,8	0,098
553,3	0,097
553,7	0,096
554,2	0,097
554,6	0,096
555,1	0,096
555,5	0,096
555,9	0,095
556,4	0,095
556,8	0,095
557,3	0,095
557,7	0,095
558,2	0,095
558,6	0,096
559,1	0,096
559,5	0,095
560	0,095
560,4	0,095
560,9	0,095
561,3	0,095
561,8	0,095
562,2	0,095
562,7	0,096
563,1	0,096
563,6	0,096
564	0,096
564,4	0,095
564,9	0,095
565,3	0,094
565,8	0,094
566,2	0,094
566,7	0,094
567,1	0,093
567,6	0,093
568	0,093
568,5	0,093
568,9	0,093
569,4	0,093
569,8	0,093
570,3	0,093
570,7	0,093
571,1	0,093
571,6	0,093
572	0,092
572,5	0,092
572,9	0,092
573,4	0,092
573,8	0,092
574,3	0,092
574,7	0,092
575,2	0,091
575,6	0,091
576,1	0,091
576,5	0,091
576,9	0,091
577,4	0,091
577,8	0,091
578,3	0,091
578,7	0,09
579,2	0,09
579,6	0,09
580,1	0,091
580,5	0,09
581	0,09
581,4	0,089
581,9	0,089
582,3	0,09
582,7	0,089
583,2	0,089
583,6	0,09
584,1	0,089
584,5	0,089
585	0,089
585,4	0,088
585,9	0,088
586,3	0,088
586,8	0,087
587,2	0,087
587,6	0,088
588,1	0,088
588,5	0,087
589	0,088
589,4	0,087
589,9	0,087
590,3	0,087
590,8	0,087
591,2	0,087
591,7	0,087
592,1	0,087
592,5	0,087
593	0,087
593,4	0,086
593,9	0,087
594,3	0,086
594,8	0,086
595,2	0,086
595,7	0,085
596,1	0,085
596,6	0,085
597	0,085
597,4	0,085
597,9	0,085
598,3	0,084
598,8	0,084
599,2	0,084
599,7	0,083
600,1	0,083
600,6	0,083
601	0,083
601,4	0,083
601,9	0,082
602,3	0,083
602,8	0,082
603,2	0,082
603,7	0,082
604,1	0,082
604,6	0,082
605	0,082
605,4	0,082
605,9	0,083
606,3	0,082
606,8	0,082
607,2	0,082
607,7	0,082
608,1	0,082
608,6	0,081
609	0,081
609,4	0,08
609,9	0,08
610,3	0,08
610,8	0,08
611,2	0,08
611,7	0,08
612,1	0,08
612,6	0,08
613	0,08
613,4	0,08
613,9	0,079
614,3	0,079
614,8	0,079
615,2	0,079
615,7	0,078
616,1	0,079
616,6	0,079
617	0,079
617,4	0,078
617,9	0,078
618,3	0,078
618,8	0,078
619,2	0,077
619,7	0,077
620,1	0,077
620,5	0,077
621	0,076
621,4	0,076
621,9	0,076
622,3	0,077
622,8	0,076
623,2	0,076
623,6	0,076
624,1	0,075
624,5	0,075
625	0,075
625,4	0,074
625,9	0,074
626,3	0,074
626,8	0,074
627,2	0,074
627,6	0,074
628,1	0,073
628,5	0,073
629	0,073
629,4	0,073
629,9	0,072
630,3	0,072
630,7	0,072
631,2	0,072
631,6	0,071
632,1	0,071
632,5	0,071
633	0,071
633,4	0,071
633,8	0,071
634,3	0,071
634,7	0,071
635,2	0,07
635,6	0,07
636,1	0,07
636,5	0,07
636,9	0,07
637,4	0,07
637,8	0,069
638,3	0,069
638,7	0,068
639,2	0,068
639,6	0,068
640	0,068
640,5	0,068
640,9	0,068
641,4	0,068
641,8	0,067
642,2	0,067
642,7	0,066
643,1	0,065
643,6	0,065
644	0,065
644,5	0,065
644,9	0,065
645,3	0,065
645,8	0,065
646,2	0,065
646,7	0,065
647,1	0,065
647,6	0,064
648	0,064
648,4	0,064
648,9	0,063
649,3	0,063
649,8	0,063
650,2	0,062
650,6	0,062
651,1	0,062
651,5	0,061
652	0,062
652,4	0,062
652,9	0,062
653,3	0,062
653,7	0,062
654,2	0,062
654,6	0,06
655,1	0,059
655,5	0,039
655,9	0,043
656,4	0,044
656,8	0,044
657,3	0,044
657,7	0,042
658,2	0,036
658,6	0,061
659	0,059
659,5	0,058
659,9	0,058
660,4	0,057
660,8	0,057
661,2	0,057
661,7	0,057
662,1	0,057
662,6	0,056
663	0,056
663,4	0,056
663,9	0,056
664,3	0,056
664,8	0,056
665,2	0,055
665,6	0,055
666,1	0,055
666,5	0,055
667	0,054
667,4	0,054
667,9	0,054
668,3	0,054
668,7	0,053
669,2	0,053
669,6	0,053
670,1	0,052
670,5	0,052
670,9	0,052
671,4	0,052
671,8	0,052
672,3	0,052
672,7	0,051
673,1	0,052
673,6	0,052
674	0,051
674,5	0,051
674,9	0,051
675,3	0,051
675,8	0,05
676,2	0,05
676,7	0,049
677,1	0,049
677,5	0,049
678	0,049
678,4	0,049
678,9	0,048
679,3	0,048
679,7	0,048
680,2	0,048
680,6	0,048
681,1	0,047
681,5	0,047
681,9	0,047
682,4	0,047
682,8	0,046
683,3	0,046
683,7	0,046
684,1	0,046
684,6	0,045
685	0,045
685,5	0,045
685,9	0,044
686,3	0,045
686,8	0,044
687,2	0,044
687,7	0,043
688,1	0,044
688,5	0,043
689	0,043
689,4	0,043
689,9	0,043
690,3	0,043
690,7	0,043
691,2	0,043
691,6	0,043
692	0,043
692,5	0,042
692,9	0,042
693,4	0,042
693,8	0,042
694,2	0,042
694,7	0,042
695,1	0,041
695,6	0,042
696	0,041
696,4	0,041
696,9	0,041
697,3	0,04
697,8	0,04
698,2	0,04
698,6	0,04
699,1	0,04
699,5	0,04
699,9	0,04
700,4	0,039
700,8	0,039
701,3	0,039
701,7	0,038
702,1	0,038
702,6	0,038
703	0,038
703,5	0,038
703,9	0,038
704,3	0,037
704,8	0,037
705,2	0,036
705,6	0,036
706,1	0,036
706,5	0,036
707	0,036
707,4	0,036
707,8	0,036
708,3	0,036
708,7	0,036
709,2	0,036
709,6	0,036
710	0,036
710,5	0,036
710,9	0,036
711,3	0,036
711,8	0,036
712,2	0,035
712,7	0,035
713,1	0,035
713,5	0,035
714	0,035
714,4	0,035
714,8	0,034
715,3	0,034
715,7	0,034
716,2	0,034
716,6	0,034
717	0,034
717,5	0,034
717,9	0,034
718,3	0,033
718,8	0,033
719,2	0,033
719,7	0,033
720,1	0,033
720,5	0,032
721	0,032
721,4	0,032
721,8	0,032
722,3	0,031
722,7	0,032
723,2	0,032
723,6	0,032
724	0,032
724,5	0,032
724,9	0,032
725,3	0,031
725,8	0,031
726,2	0,03
726,7	0,03
727,1	0,03
727,5	0,03
728	0,03
728,4	0,03
728,8	0,03
729,3	0,03
729,7	0,03
730,1	0,03
730,6	0,03
731	0,03
731,5	0,029
731,9	0,029
732,3	0,028
732,8	0,028
733,2	0,029
733,6	0,028
734,1	0,029
734,5	0,029
734,9	0,029
735,4	0,029
735,8	0,029
736,3	0,028
736,7	0,028
737,1	0,028
737,6	0,028
738	0,028
738,4	0,028
738,9	0,028
739,3	0,028
739,7	0,028
740,2	0,027
740,6	0,027
741,1	0,027
741,5	0,027
741,9	0,027
742,4	0,027
742,8	0,026
743,2	0,026
743,7	0,026
744,1	0,026
744,5	0,026
745	0,026
745,4	0,026
745,8	0,026
746,3	0,027
746,7	0,026
747,2	0,026
747,6	0,026
748	0,025
748,5	0,025
748,9	0,025
749,3	0,025
749,8	0,025
750,2	0,025
750,6	0,025
751,1	0,025
751,5	0,025
751,9	0,025
752,4	0,025
752,8	0,024
753,3	0,024
753,7	0,024
754,1	0,024
754,6	0,024
755	0,024
755,4	0,024
755,9	0,024
756,3	0,024
756,7	0,024
757,2	0,024
757,6	0,024
758	0,024
758,5	0,023
758,9	0,023
759,3	0,023
759,8	0,023
760,2	0,023
760,6	0,022
761,1	0,023
761,5	0,022
761,9	0,022
762,4	0,023
762,8	0,023
763,3	0,023
763,7	0,023
764,1	0,022
764,6	0,022
765	0,022
765,4	0,022
765,9	0,022
766,3	0,021
766,7	0,021
767,2	0,021
767,6	0,021
768	0,021
768,5	0,021
768,9	0,021
769,3	0,021
769,8	0,021
770,2	0,022
770,6	0,022
771,1	0,022
771,5	0,022
771,9	0,022
772,4	0,021
772,8	0,021
773,2	0,021
773,7	0,021
774,1	0,02
774,5	0,021
775	0,021
775,4	0,021
775,8	0,02
776,3	0,02
776,7	0,02
777,1	0,02
777,6	0,019
778	0,019
778,4	0,019
778,9	0,019
779,3	0,019
779,7	0,019
780,2	0,019
780,6	0,019
781	0,019
781,5	0,019
781,9	0,02
782,3	0,019
782,8	0,019
783,2	0,019
783,6	0,019
784,1	0,019
784,5	0,019
784,9	0,018
785,4	0,018
785,8	0,018
786,2	0,018
786,7	0,018
787,1	0,018
787,5	0,018
788	0,018
788,4	0,018
788,8	0,018
789,3	0,018
789,7	0,018
790,1	0,018
790,6	0,017
791	0,018
791,4	0,018
791,9	0,018
792,3	0,018
792,7	0,018
793,2	0,018
793,6	0,018
794	0,018
794,5	0,018
794,9	0,018
795,3	0,018
795,8	0,018
796,2	0,018
796,6	0,017
797,1	0,017
797,5	0,017
797,9	0,017
798,4	0,017
798,8	0,017
799,2	0,017
799,7	0,017
800,1	0,017
800,5	0,017
801	0,017
801,4	0,016
801,8	0,016
802,2	0,016
802,7	0,015
803,1	0,015
803,5	0,015
804	0,015
804,4	0,016
804,8	0,016
805,3	0,016
805,7	0,016
806,1	0,016
806,6	0,017
807	0,017
807,4	0,017
807,9	0,017
808,3	0,016
808,7	0,016
809,2	0,016
809,6	0,016
810	0,016
810,4	0,016
810,9	0,016
811,3	0,016
811,7	0,015
812,2	0,015
812,6	0,015
813	0,014
813,5	0,014
813,9	0,014
814,3	0,015
814,8	0,015
815,2	0,015
815,6	0,015
816,1	0,015
816,5	0,015
816,9	0,016
817,3	0,016
817,8	0,016
818,2	0,016
818,6	0,016
819,1	0,015
819,5	0,016
819,9	0,015
820,4	0,015
820,8	0,014
821,2	0,014
821,7	0,014
822,1	0,014
822,5	0,014
822,9	0,014
823,4	0,014
823,8	0,014
824,2	0,014
824,7	0,014
825,1	0,014
825,5	0,014
826	0,014
826,4	0,014
826,8	0,014
827,3	0,014
827,7	0,013
828,1	0,013
828,5	0,013
829	0,013
829,4	0,013
829,8	0,014
830,3	0,014
830,7	0,014
831,1	0,014
831,6	0,014
832	0,014
832,4	0,014
832,8	0,013
833,3	0,013
833,7	0,013
834,1	0,013
834,6	0,013
835	0,013
835,4	0,013
835,8	0,014
836,3	0,014
836,7	0,013
837,1	0,013
837,6	0,013
838	0,013
838,4	0,013
838,9	0,013
839,3	0,013
839,7	0,013
840,1	0,014
840,6	0,014
841	0,014
841,4	0,014
841,9	0,014
842,3	0,014
842,7	0,014
843,1	0,014
843,6	0,013
844	0,013
844,4	0,013
844,9	0,013
845,3	0,012
845,7	0,012
846,2	0,012
846,6	0,012
847	0,012
847,4	0,012
847,9	0,012
848,3	0,012
848,7	0,012
849,2	0,012
849,6	0,012
850	0,012
850,4	0,012
850,9	0,012
851,3	0,012
851,7	0,012
852,2	0,012
852,6	0,011
853	0,011
853,4	0,011
853,9	0,011
854,3	0,011
854,7	0,011
855,2	0,011
855,6	0,012
856	0,012
856,4	0,012
856,9	0,012
857,3	0,012
857,7	0,011
858,2	0,011
858,6	0,011
859	0,011
859,4	0,011
859,9	0,011
860,3	0,011
860,7	0,011
861,1	0,011
861,6	0,011
862	0,01
862,4	0,01
862,9	0,009
863,3	0,009
863,7	0,01
864,1	0,01
864,6	0,009
865	0,01
865,4	0,01
865,9	0,01
866,3	0,01
866,7	0,01
867,1	0,01
867,6	0,01
868	0,01
868,4	0,01
868,8	0,01
869,3	0,01
869,7	0,01
870,1	0,01
870,6	0,01
871	0,01
871,4	0,01
871,8	0,01
872,3	0,01
872,7	0,01
873,1	0,01
873,5	0,01
874	0,01
874,4	0,01
874,8	0,009
875,3	0,009
875,7	0,01
876,1	0,01
876,5	0,009
877	0,009
877,4	0,009
877,8	0,009
878,2	0,009
878,7	0,009
879,1	0,009
879,5	0,01
879,9	0,01
880,4	0,01
880,8	0,01
881,2	0,009
881,7	0,01
882,1	0,009
882,5	0,009
882,9	0,009
883,4	0,009
883,8	0,009
884,2	0,009
884,6	0,009
885,1	0,009
885,5	0,009
885,9	0,01
886,3	0,01
886,8	0,01
887,2	0,01
887,6	0,01
888	0,01
888,5	0,01
888,9	0,01
889,3	0,009
889,8	0,009
890,2	0,009
890,6	0,009
891	0,009
891,5	0,009
891,9	0,009
892,3	0,009
892,7	0,009
893,2	0,01
893,6	0,01
894	0,01
894,4	0,009
894,9	0,009
895,3	0,009
895,7	0,009
896,1	0,009
896,6	0,008
897	0,008
897,4	0,008
897,8	0,008
898,3	0,008
898,7	0,008
899,1	0,008
899,5	0,008
900	0,008
900,4	0,008
900,8	0,008
901,2	0,008
901,7	0,008
902,1	0,008
902,5	0,008
902,9	0,008
903,4	0,008
903,8	0,008
904,2	0,008
904,6	0,008
905,1	0,008
905,5	0,008
905,9	0,008
906,3	0,008
906,8	0,008
907,2	0,009
907,6	0,008
908	0,009
908,5	0,008
908,9	0,008
909,3	0,008
909,7	0,008
910,2	0,007
910,6	0,007
911	0,007
911,4	0,007
911,9	0,008
912,3	0,008
912,7	0,008
913,1	0,008
913,6	0,008
914	0,007
914,4	0,008
914,8	0,007
915,3	0,007
915,7	0,007
916,1	0,007
916,5	0,007
916,9	0,007
917,4	0,007
917,8	0,008
918,2	0,008
918,6	0,007
919,1	0,007
919,5	0,007
919,9	0,007
920,3	0,008
920,8	0,007
921,2	0,007
921,6	0,008
922	0,008
922,5	0,008
922,9	0,008
923,3	0,007
923,7	0,007
924,2	0,007
924,6	0,007
925	0,007
925,4	0,007
925,8	0,007
926,3	0,007
926,7	0,008
927,1	0,007
927,5	0,007
928	0,007
928,4	0,007
928,8	0,007
929,2	0,007
929,7	0,008
930,1	0,008
930,5	0,008
930,9	0,008
931,3	0,009
931,8	0,008
932,2	0,009
932,6	0,008
933	0,009
933,5	0,009
933,9	0,008
934,3	0,008
934,7	0,009
935,2	0,008
935,6	0,008
936	0,007
936,4	0,007
936,8	0,007
937,3	0,007
937,7	0,007
938,1	0,007
938,5	0,007
939	0,007
939,4	0,007
939,8	0,007
940,2	0,007
940,6	0,008
941,1	0,007
941,5	0,008
941,9	0,007
942,3	0,007
942,8	0,008
943,2	0,008
943,6	0,008
944	0,008
944,4	0,007
944,9	0,007
945,3	0,007
945,7	0,007
946,1	0,007
946,6	0,007
947	0,008
947,4	0,008
947,8	0,008
948,2	0,008
948,7	0,008
949,1	0,009
949,5	0,009
949,9	0,009
950,3	0,009
950,8	0,009
951,2	0,01
951,6	0,009
952	0,01
952,5	0,01
952,9	0,01
953,3	0,01
953,7	0,01
954,1	0,01
954,6	0,01
955	0,01
955,4	0,01
955,8	0,009
956,2	0,01
956,7	0,01
957,1	0,01
957,5	0,01
957,9	0,009
958,3	0,009
958,8	0,009
959,2	0,008
959,6	0,009
960	0,009
960,5	0,009
960,9	0,01
961,3	0,01
961,7	0,01
962,1	0,011
962,6	0,01
963	0,01
963,4	0,009
963,8	0,008
964,2	0,008
964,7	0,008
965,1	0,008
965,5	0,008
965,9	0,009
966,3	0,01
966,8	0,01
967,2	0,011
967,6	0,011
968	0,011
968,4	0,01
968,9	0,01
969,3	0,009
969,7	0,009
970,1	0,009
970,5	0,009
971	0,009
971,4	0,009
971,8	0,009
972,2	0,01
972,6	0,01
973,1	0,01
973,5	0,009
973,9	0,009
974,3	0,009
974,7	0,008
975,2	0,008
975,6	0,008
976	0,008
976,4	0,008
976,8	0,009
977,3	0,008
977,7	0,008
978,1	0,008
978,5	0,008
978,9	0,008
979,4	0,008
979,8	0,008
980,2	0,008
980,6	0,008
981	0,008
981,5	0,008
981,9	0,008
982,3	0,008
982,7	0,007
983,1	0,006
983,6	0,007
984	0,007
984,4	0,007
984,8	0,007
985,2	0,007
985,6	0,007
986,1	0,008
986,5	0,007
986,9	0,006
987,3	0,006
987,7	0,007
988,2	0,007
988,6	0,007
989	0,006
989,4	0,006
989,8	0,006
990,3	0,006
990,7	0,005
991,1	0,005
991,5	0,005
991,9	0,005
992,3	0,005
992,8	0,005
993,2	0,005
993,6	0,005
994	0,005
994,4	0,006
994,9	0,006
995,3	0,006
995,7	0,006
996,1	0,006
996,5	0,006
996,9	0,006
997,4	0,004
997,8	0,004
998,2	0,004
998,6	0,003
999	0,003
999,5	0,003
999,9	0,004
1000,3	0,004
1000,7	0,004
1001,1	0,004
1001,5	0,004
1002	0,004
1002,4	0,005
1002,8	0,004
1003,2	0,005
1003,6	0,005
1004	0,004
1004,5	0,004
1004,9	0,004
1005,3	0,003
1005,7	0,003
1006,1	0,003
1006,6	0,003
1007	0,003
1007,4	0,004
1007,8	0,005
1008,2	0,006
1008,6	0,006
1009,1	0,006
1009,5	0,006
1009,9	0,006
1010,3	0,005
1010,7	0,004
1011,1	0,003
1011,6	0,002
1012	0,002
1012,4	0,002
1012,8	0,002
1013,2	0,003
1013,6	0,003
1014,1	0,004
1014,5	0,004
1014,9	0,003
1015,3	0,003
1015,7	0,003
1016,1	0,004
1016,6	0,003
1017	0,003
1017,4	0,003
1017,8	0,004
1018,2	0,003
1018,6	0,003
1019,1	0,002
1019,5	0,002
1019,9	0,001
1020,3	0,001
1020,7	0,001
1021,1	0,001
1021,6	0,001
1022	0,002
1022,4	0,002
1022,8	0,002
1023,2	0,002
1023,6	0,002
1024,1	0,002
1024,5	0,002
1024,9	0,002
1025,3	0,002
1025,7	0,002
1026,1	0,002
1026,6	0,002
1027	0,001
1027,4	0,002
1027,8	0,001
1028,2	0,001
1028,6	0,001
1029	0,002
1029,5	0,001
1029,9	0,001
1030,3	0,002
1030,7	0,002
1031,1	0,002
1031,5	0,002
1032	0,001
1032,4	0,001
1032,8	0,001
1033,2	0,001
1033,6	0
1034	0,001
1034,4	0
1034,9	0
1035,3	0
1035,7	0
1036,1	0
1036,5	0,001
1036,9	0,001
1037,4	0,001
1037,8	0,002
1038,2	0,002
1038,6	0,001
1039	0,001
1039,4	0,001
1039,8	0,002
1040,3	0,002
1040,7	0,002
1041,1	0,002
1041,5	0,004
1041,9	0,003
1042,3	0,003
1042,7	0,002
1043,2	0,002
1043,6	0,002
1044	0,002
1044,4	0,001
1044,8	0,002
1045,2	0,002
1045,6	0,002
1046,1	0,002
1046,5	0,002
1046,9	0,002
1047,3	0,002
1047,7	0,002
1048,1	0,002
1048,5	0,002
1049	0,003
1049,4	0,003
1049,8	0,002
1050,2	0,002
1050,6	0,002
1051	0,002
1051,4	0,001
1051,9	0,001
1052,3	0,001
1052,7	0,002
1053,1	0,002
1053,5	0,002
1053,9	0,002
1054,3	0,002
1054,8	0,002
1055,2	0,002
1055,6	0,002
1056	0,001
1056,4	0,003
1056,8	0,003
1057,2	0,003
1057,6	0,003
1058,1	0,003
1058,5	0,003
1058,9	0,004
1059,3	0,004
1059,7	0,003
1060,1	0,003
1060,5	0,003
1061	0,003
1061,4	0,002
1061,8	0,001
1062,2	0,001
1062,6	0,002
1063	0,001
1063,4	0,001
1063,8	0
1064,3	0,001
1064,7	0,001
1065,1	0
1065,5	-0
1065,9	0
1066,3	-0
1066,7	-0,001
1067,1	-0,002
1067,6	-0,001
1068	0
1068,4	0
1068,8	-0
1069,2	0,001
1069,6	0,001
1070	0,002
1070,4	0,002
1070,9	0,001
1071,3	0,001
1071,7	0,002
1072,1	0,001
1072,5	-0
1072,9	0
1073,3	0,001
1073,7	0,001
1074,2	0,001
1074,6	0,001
1075	0,002
1075,4	0,004
1075,8	0,004
1076,2	0,004
1076,6	0,004
1077	0,004
1077,5	0,004
1077,9	0,005
1078,3	0,003
1078,7	0,003
1079,1	0,003
1079,5	0,003
1079,9	0,004
1080,3	0,005
1080,7	0,003
1081,2	0,002
1081,6	0,002
1082	0,003
1082,4	0,003
1082,8	0
1083,2	0
1083,6	0,002
1084	0,003
1084,5	0,003
1084,9	0,004
1085,3	0,005
1085,7	0,005
1086,1	0,009
1086,5	0,007
1086,9	0,005
1087,3	0,005
1087,7	0,006
1088,2	0,009
1088,6	0,01
1089	0,007
1089,4	0,004
1089,8	0,007
1090,2	0,006
1090,6	0,003
1091	-0,001
1091,4	0,003
1091,9	0,002
1092,3	0,01
1092,7	0,011
1093,1	0,012
1093,5	0,01
1093,9	0,008
1094,3	0,004
1094,7	-0,003
1095,1	-0,003
1095,5	-0,01
1096	-0,015
1096,4	-0,015
1096,8	-0,017
1097,2	-0,023
1097,6	-0,014
1098	-0,024
1098,4	-0,019
1098,8	-0,007
1099,2	0
1099,6	0,014
1100,1	0,015
1100,5	0,016
1100,9	0,029
1101,3	0,027
1101,7	0,035
1102,1	0,029
1102,5	0,03
1102,9	0,029
1103,3	0,022
1103,7	0,014
1104,2	0,014
1104,6	0,012
1105	0,016
1105,4	0,01
1105,8	0,028
1106,2	0,029
1106,6	0,037
1107	0,049
1107,4	0,021
1107,8	0,031
1108,3	-0,39
