Data from Absorbance_19-21-18-404.txt Node
Date: Tue Nov 15 19:21:18 MSK 2022
User: vat
Spectrometer: MAYP114033
Trigger mode: 0
Integration Time (sec): 8,000000E-3
Scans to average: 10
Electric dark correction enabled: true
Nonlinearity correction enabled: false
Boxcar width: 3
XAxis mode: Wavelengths
Number of Pixels in Spectrum: 2068
>>>>>Begin Spectral Data<<<<<
199,4	-0
199,9	0,816
200,4	0,049
200,8	0,156
201,3	0,109
201,8	0,084
202,2	0,128
202,7	0,073
203,2	0,104
203,6	0,135
204,1	0,102
204,6	0,103
205	0,09
205,5	0,068
206	0,082
206,4	0,063
206,9	0,049
207,4	0,056
207,8	0,049
208,3	0,056
208,8	0,076
209,2	0,109
209,7	0,114
210,2	0,143
210,6	0,142
211,1	0,131
211,5	0,11
212	0,105
212,5	0,089
212,9	0,081
213,4	0,07
213,9	0,08
214,3	0,073
214,8	0,113
215,3	0,12
215,7	0,083
216,2	0,068
216,7	0,069
217,1	0,037
217,6	0,05
218,1	0,01
218,5	-0,021
219	-0,015
219,5	-0,028
219,9	-0,038
220,4	-0,02
220,9	-0,019
221,3	0,01
221,8	0,013
222,3	0,043
222,7	0,072
223,2	0,097
223,6	0,099
224,1	0,102
224,6	0,089
225	0,089
225,5	0,068
226	0,106
226,4	0,098
226,9	0,101
227,4	0,094
227,8	0,089
228,3	0,099
228,8	0,11
229,2	0,079
229,7	0,036
230,2	0,011
230,6	0,013
231,1	0,027
231,5	0,044
232	0,042
232,5	0,039
232,9	0,061
233,4	0,058
233,9	0,048
234,3	0,018
234,8	-0,002
235,3	-0,021
235,7	-0,026
236,2	0,003
236,7	0,001
237,1	0,006
237,6	0,033
238,1	0,054
238,5	0,086
239	0,116
239,4	0,083
239,9	0,099
240,4	0,103
240,8	0,101
241,3	0,072
241,8	0,057
242,2	0,034
242,7	0,035
243,2	0,041
243,6	0,054
244,1	0,099
244,6	0,123
245	0,139
245,5	0,136
245,9	0,131
246,4	0,115
246,9	0,117
247,3	0,076
247,8	0,078
248,3	0,068
248,7	0,081
249,2	0,061
249,7	0,076
250,1	0,068
250,6	0,093
251	0,083
251,5	0,089
252	0,099
252,4	0,119
252,9	0,132
253,4	0,139
253,8	0,142
254,3	0,155
254,8	0,157
255,2	0,161
255,7	0,161
256,1	0,157
256,6	0,158
257,1	0,155
257,5	0,153
258	0,153
258,5	0,149
258,9	0,148
259,4	0,149
259,9	0,146
260,3	0,145
260,8	0,143
261,2	0,142
261,7	0,142
262,2	0,141
262,6	0,137
263,1	0,138
263,6	0,137
264	0,135
264,5	0,135
264,9	0,134
265,4	0,134
265,9	0,134
266,3	0,132
266,8	0,131
267,3	0,13
267,7	0,129
268,2	0,128
268,7	0,127
269,1	0,127
269,6	0,126
270	0,125
270,5	0,124
271	0,122
271,4	0,121
271,9	0,119
272,4	0,119
272,8	0,119
273,3	0,118
273,7	0,117
274,2	0,116
274,7	0,115
275,1	0,115
275,6	0,115
276,1	0,114
276,5	0,114
277	0,113
277,4	0,112
277,9	0,111
278,4	0,11
278,8	0,108
279,3	0,107
279,8	0,106
280,2	0,106
280,7	0,105
281,1	0,104
281,6	0,105
282,1	0,104
282,5	0,103
283	0,103
283,4	0,102
283,9	0,102
284,4	0,101
284,8	0,099
285,3	0,1
285,8	0,1
286,2	0,1
286,7	0,099
287,1	0,099
287,6	0,098
288,1	0,098
288,5	0,097
289	0,097
289,5	0,095
289,9	0,094
290,4	0,094
290,8	0,094
291,3	0,094
291,8	0,093
292,2	0,093
292,7	0,093
293,1	0,094
293,6	0,094
294,1	0,094
294,5	0,093
295	0,093
295,5	0,093
295,9	0,094
296,4	0,093
296,8	0,094
297,3	0,094
297,8	0,094
298,2	0,094
298,7	0,094
299,1	0,094
299,6	0,094
300,1	0,094
300,5	0,093
301	0,094
301,5	0,095
301,9	0,094
302,4	0,094
302,8	0,095
303,3	0,096
303,8	0,096
304,2	0,096
304,7	0,097
305,1	0,098
305,6	0,099
306,1	0,098
306,5	0,099
307	0,1
307,4	0,102
307,9	0,102
308,4	0,103
308,8	0,105
309,3	0,106
309,8	0,106
310,2	0,107
310,7	0,107
311,1	0,108
311,6	0,109
312,1	0,109
312,5	0,11
313	0,112
313,4	0,113
313,9	0,113
314,4	0,114
314,8	0,115
315,3	0,117
315,7	0,119
316,2	0,12
316,7	0,121
317,1	0,121
317,6	0,123
318	0,124
318,5	0,125
319	0,125
319,4	0,126
319,9	0,127
320,3	0,129
320,8	0,13
321,3	0,131
321,7	0,132
322,2	0,133
322,6	0,134
323,1	0,136
323,6	0,137
324	0,138
324,5	0,139
324,9	0,14
325,4	0,141
325,9	0,142
326,3	0,143
326,8	0,144
327,2	0,145
327,7	0,146
328,2	0,148
328,6	0,148
329,1	0,149
329,5	0,15
330	0,151
330,5	0,152
330,9	0,152
331,4	0,153
331,8	0,154
332,3	0,154
332,8	0,155
333,2	0,155
333,7	0,154
334,1	0,155
334,6	0,155
335,1	0,155
335,5	0,155
336	0,155
336,4	0,155
336,9	0,156
337,4	0,155
337,8	0,155
338,3	0,156
338,7	0,156
339,2	0,155
339,7	0,154
340,1	0,153
340,6	0,152
341	0,151
341,5	0,15
342	0,148
342,4	0,148
342,9	0,146
343,3	0,145
343,8	0,144
344,2	0,144
344,7	0,143
345,2	0,142
345,6	0,14
346,1	0,14
346,5	0,138
347	0,138
347,5	0,136
347,9	0,135
348,4	0,133
348,8	0,132
349,3	0,131
349,8	0,128
350,2	0,127
350,7	0,125
351,1	0,124
351,6	0,123
352	0,122
352,5	0,121
353	0,121
353,4	0,119
353,9	0,117
354,3	0,116
354,8	0,115
355,3	0,114
355,7	0,113
356,2	0,112
356,6	0,111
357,1	0,111
357,5	0,109
358	0,108
358,5	0,108
358,9	0,108
359,4	0,107
359,8	0,107
360,3	0,106
360,8	0,106
361,2	0,106
361,7	0,106
362,1	0,106
362,6	0,105
363	0,104
363,5	0,104
364	0,103
364,4	0,101
364,9	0,1
365,3	0,099
365,8	0,098
366,3	0,098
366,7	0,098
367,2	0,097
367,6	0,098
368,1	0,096
368,5	0,096
369	0,096
369,5	0,095
369,9	0,094
370,4	0,094
370,8	0,094
371,3	0,093
371,7	0,093
372,2	0,092
372,7	0,092
373,1	0,091
373,6	0,09
374	0,09
374,5	0,089
374,9	0,089
375,4	0,088
375,9	0,088
376,3	0,088
376,8	0,088
377,2	0,087
377,7	0,087
378,2	0,087
378,6	0,088
379,1	0,088
379,5	0,088
380	0,088
380,4	0,088
380,9	0,088
381,4	0,088
381,8	0,088
382,3	0,086
382,7	0,086
383,2	0,085
383,6	0,084
384,1	0,084
384,6	0,084
385	0,084
385,5	0,084
385,9	0,085
386,4	0,085
386,8	0,085
387,3	0,085
387,7	0,085
388,2	0,084
388,7	0,084
389,1	0,083
389,6	0,082
390	0,083
390,5	0,082
390,9	0,082
391,4	0,082
391,9	0,081
392,3	0,082
392,8	0,082
393,2	0,082
393,7	0,082
394,1	0,081
394,6	0,081
395,1	0,081
395,5	0,081
396	0,08
396,4	0,08
396,9	0,08
397,3	0,08
397,8	0,08
398,2	0,079
398,7	0,08
399,2	0,08
399,6	0,08
400,1	0,08
400,5	0,079
401	0,079
401,4	0,079
401,9	0,078
402,4	0,078
402,8	0,077
403,3	0,076
403,7	0,077
404,2	0,076
404,6	0,076
405,1	0,076
405,5	0,077
406	0,077
406,5	0,077
406,9	0,077
407,4	0,077
407,8	0,077
408,3	0,077
408,7	0,076
409,2	0,076
409,6	0,076
410,1	0,076
410,6	0,076
411	0,075
411,5	0,075
411,9	0,075
412,4	0,075
412,8	0,075
413,3	0,075
413,7	0,075
414,2	0,075
414,7	0,075
415,1	0,075
415,6	0,075
416	0,074
416,5	0,074
416,9	0,072
417,4	0,073
417,8	0,071
418,3	0,071
418,8	0,071
419,2	0,072
419,7	0,071
420,1	0,071
420,6	0,071
421	0,072
421,5	0,071
421,9	0,071
422,4	0,07
422,8	0,07
423,3	0,069
423,8	0,069
424,2	0,069
424,7	0,069
425,1	0,069
425,6	0,069
426	0,069
426,5	0,069
426,9	0,068
427,4	0,068
427,9	0,068
428,3	0,068
428,8	0,068
429,2	0,068
429,7	0,068
430,1	0,068
430,6	0,067
431	0,067
431,5	0,066
431,9	0,067
432,4	0,066
432,8	0,066
433,3	0,065
433,8	0,065
434,2	0,065
434,7	0,064
435,1	0,064
435,6	0,064
436	0,064
436,5	0,064
436,9	0,065
437,4	0,065
437,8	0,065
438,3	0,065
438,8	0,066
439,2	0,065
439,7	0,066
440,1	0,065
440,6	0,065
441	0,065
441,5	0,065
441,9	0,065
442,4	0,065
442,8	0,065
443,3	0,065
443,7	0,065
444,2	0,065
444,7	0,065
445,1	0,063
445,6	0,063
446	0,063
446,5	0,063
446,9	0,063
447,4	0,062
447,8	0,062
448,3	0,063
448,7	0,063
449,2	0,063
449,6	0,063
450,1	0,063
450,6	0,063
451	0,063
451,5	0,062
451,9	0,063
452,4	0,062
452,8	0,062
453,3	0,061
453,7	0,062
454,2	0,061
454,6	0,061
455,1	0,061
455,5	0,062
456	0,062
456,4	0,062
456,9	0,062
457,3	0,064
457,8	0,063
458,3	0,063
458,7	0,062
459,2	0,062
459,6	0,062
460,1	0,062
460,5	0,062
461	0,061
461,4	0,062
461,9	0,062
462,3	0,062
462,8	0,062
463,2	0,061
463,7	0,061
464,1	0,062
464,6	0,062
465	0,062
465,5	0,063
466	0,062
466,4	0,063
466,9	0,063
467,3	0,063
467,8	0,063
468,2	0,062
468,7	0,062
469,1	0,062
469,6	0,061
470	0,061
470,5	0,061
470,9	0,061
471,4	0,062
471,8	0,062
472,3	0,062
472,7	0,062
473,2	0,062
473,6	0,063
474,1	0,063
474,5	0,062
475	0,063
475,4	0,063
475,9	0,063
476,4	0,063
476,8	0,062
477,3	0,062
477,7	0,062
478,2	0,061
478,6	0,061
479,1	0,062
479,5	0,062
480	0,062
480,4	0,062
480,9	0,062
481,3	0,063
481,8	0,064
482,2	0,063
482,7	0,063
483,1	0,064
483,6	0,065
484	0,065
484,5	0,064
484,9	0,064
485,4	0,064
485,8	0,064
486,3	0,064
486,7	0,064
487,2	0,064
487,6	0,064
488,1	0,064
488,5	0,065
489	0,065
489,4	0,064
489,9	0,064
490,4	0,064
490,8	0,064
491,3	0,064
491,7	0,063
492,2	0,063
492,6	0,063
493,1	0,063
493,5	0,063
494	0,063
494,4	0,064
494,9	0,063
495,3	0,063
495,8	0,063
496,2	0,064
496,7	0,064
497,1	0,064
497,6	0,064
498	0,065
498,5	0,064
498,9	0,065
499,4	0,065
499,8	0,066
500,3	0,066
500,7	0,066
501,2	0,066
501,6	0,067
502,1	0,067
502,5	0,067
503	0,066
503,4	0,066
503,9	0,066
504,3	0,066
504,8	0,066
505,2	0,066
505,7	0,066
506,1	0,066
506,6	0,066
507	0,066
507,5	0,066
507,9	0,066
508,4	0,067
508,8	0,067
509,3	0,068
509,7	0,068
510,2	0,067
510,6	0,067
511,1	0,068
511,5	0,068
512	0,068
512,4	0,068
512,9	0,068
513,3	0,069
513,8	0,069
514,2	0,068
514,7	0,068
515,1	0,068
515,6	0,069
516	0,069
516,5	0,069
516,9	0,069
517,4	0,069
517,8	0,07
518,3	0,07
518,7	0,07
519,2	0,071
519,6	0,071
520,1	0,071
520,5	0,071
521	0,07
521,4	0,07
521,9	0,069
522,3	0,069
522,8	0,07
523,2	0,07
523,7	0,07
524,1	0,07
524,6	0,071
525	0,072
525,5	0,072
525,9	0,072
526,4	0,072
526,8	0,072
527,3	0,072
527,7	0,072
528,2	0,071
528,6	0,071
529,1	0,071
529,5	0,071
530	0,071
530,4	0,071
530,9	0,072
531,3	0,073
531,8	0,072
532,2	0,072
532,6	0,073
533,1	0,072
533,5	0,073
534	0,073
534,4	0,072
534,9	0,073
535,3	0,073
535,8	0,072
536,2	0,073
536,7	0,072
537,1	0,073
537,6	0,073
538	0,073
538,5	0,074
538,9	0,075
539,4	0,075
539,8	0,075
540,3	0,075
540,7	0,075
541,2	0,074
541,6	0,074
542,1	0,074
542,5	0,074
543	0,074
543,4	0,074
543,9	0,074
544,3	0,074
544,8	0,075
545,2	0,074
545,7	0,074
546,1	0,074
546,5	0,074
547	0,075
547,4	0,074
547,9	0,074
548,3	0,073
548,8	0,073
549,2	0,072
549,7	0,072
550,1	0,072
550,6	0,073
551	0,072
551,5	0,073
551,9	0,073
552,4	0,073
552,8	0,073
553,3	0,073
553,7	0,073
554,2	0,073
554,6	0,074
555,1	0,074
555,5	0,074
555,9	0,074
556,4	0,073
556,8	0,073
557,3	0,073
557,7	0,072
558,2	0,072
558,6	0,072
559,1	0,072
559,5	0,072
560	0,072
560,4	0,072
560,9	0,072
561,3	0,072
561,8	0,073
562,2	0,072
562,7	0,073
563,1	0,072
563,6	0,072
564	0,071
564,4	0,071
564,9	0,071
565,3	0,071
565,8	0,071
566,2	0,071
566,7	0,071
567,1	0,071
567,6	0,071
568	0,071
568,5	0,07
568,9	0,071
569,4	0,071
569,8	0,071
570,3	0,071
570,7	0,071
571,1	0,071
571,6	0,071
572	0,071
572,5	0,07
572,9	0,07
573,4	0,07
573,8	0,069
574,3	0,069
574,7	0,069
575,2	0,069
575,6	0,069
576,1	0,07
576,5	0,069
576,9	0,069
577,4	0,069
577,8	0,069
578,3	0,069
578,7	0,069
579,2	0,068
579,6	0,068
580,1	0,068
580,5	0,068
581	0,068
581,4	0,067
581,9	0,067
582,3	0,067
582,7	0,068
583,2	0,068
583,6	0,068
584,1	0,068
584,5	0,067
585	0,067
585,4	0,067
585,9	0,066
586,3	0,066
586,8	0,066
587,2	0,065
587,6	0,066
588,1	0,066
588,5	0,066
589	0,066
589,4	0,066
589,9	0,065
590,3	0,065
590,8	0,065
591,2	0,065
591,7	0,065
592,1	0,065
592,5	0,065
593	0,065
593,4	0,065
593,9	0,065
594,3	0,065
594,8	0,064
595,2	0,064
595,7	0,064
596,1	0,064
596,6	0,064
597	0,063
597,4	0,063
597,9	0,063
598,3	0,063
598,8	0,063
599,2	0,062
599,7	0,062
600,1	0,062
600,6	0,062
601	0,061
601,4	0,061
601,9	0,061
602,3	0,061
602,8	0,061
603,2	0,061
603,7	0,06
604,1	0,061
604,6	0,061
605	0,061
605,4	0,061
605,9	0,061
606,3	0,061
606,8	0,061
607,2	0,061
607,7	0,061
608,1	0,06
608,6	0,06
609	0,06
609,4	0,059
609,9	0,059
610,3	0,059
610,8	0,059
611,2	0,059
611,7	0,059
612,1	0,059
612,6	0,059
613	0,059
613,4	0,059
613,9	0,059
614,3	0,059
614,8	0,059
615,2	0,059
615,7	0,059
616,1	0,059
616,6	0,059
617	0,058
617,4	0,058
617,9	0,058
618,3	0,057
618,8	0,057
619,2	0,057
619,7	0,057
620,1	0,057
620,5	0,057
621	0,056
621,4	0,056
621,9	0,056
622,3	0,056
622,8	0,056
623,2	0,056
623,6	0,055
624,1	0,055
624,5	0,055
625	0,055
625,4	0,055
625,9	0,054
626,3	0,055
626,8	0,055
627,2	0,055
627,6	0,055
628,1	0,054
628,5	0,054
629	0,054
629,4	0,054
629,9	0,054
630,3	0,054
630,7	0,053
631,2	0,053
631,6	0,053
632,1	0,053
632,5	0,053
633	0,053
633,4	0,052
633,8	0,052
634,3	0,052
634,7	0,051
635,2	0,051
635,6	0,051
636,1	0,051
636,5	0,051
636,9	0,051
637,4	0,051
637,8	0,051
638,3	0,051
638,7	0,051
639,2	0,05
639,6	0,05
640	0,05
640,5	0,05
640,9	0,05
641,4	0,049
641,8	0,049
642,2	0,049
642,7	0,049
643,1	0,049
643,6	0,049
644	0,049
644,5	0,048
644,9	0,048
645,3	0,048
645,8	0,048
646,2	0,048
646,7	0,048
647,1	0,048
647,6	0,047
648	0,047
648,4	0,046
648,9	0,046
649,3	0,046
649,8	0,045
650,2	0,045
650,6	0,045
651,1	0,045
651,5	0,045
652	0,045
652,4	0,045
652,9	0,045
653,3	0,046
653,7	0,045
654,2	0,046
654,6	0,045
655,1	0,044
655,5	0,03
655,9	0,032
656,4	0,033
656,8	0,033
657,3	0,032
657,7	0,031
658,2	0,027
658,6	0,045
659	0,044
659,5	0,044
659,9	0,044
660,4	0,043
660,8	0,044
661,2	0,044
661,7	0,044
662,1	0,043
662,6	0,043
663	0,042
663,4	0,042
663,9	0,041
664,3	0,041
664,8	0,041
665,2	0,041
665,6	0,041
666,1	0,041
666,5	0,041
667	0,04
667,4	0,04
667,9	0,04
668,3	0,04
668,7	0,04
669,2	0,039
669,6	0,039
670,1	0,04
670,5	0,039
670,9	0,039
671,4	0,038
671,8	0,038
672,3	0,038
672,7	0,038
673,1	0,038
673,6	0,037
674	0,037
674,5	0,038
674,9	0,038
675,3	0,038
675,8	0,038
676,2	0,037
676,7	0,037
677,1	0,037
677,5	0,037
678	0,037
678,4	0,037
678,9	0,036
679,3	0,036
679,7	0,036
680,2	0,036
680,6	0,036
681,1	0,036
681,5	0,035
681,9	0,036
682,4	0,036
682,8	0,035
683,3	0,034
683,7	0,034
684,1	0,035
684,6	0,034
685	0,034
685,5	0,033
685,9	0,033
686,3	0,034
686,8	0,033
687,2	0,033
687,7	0,033
688,1	0,033
688,5	0,033
689	0,033
689,4	0,032
689,9	0,033
690,3	0,033
690,7	0,032
691,2	0,032
691,6	0,032
692	0,032
692,5	0,032
692,9	0,031
693,4	0,031
693,8	0,031
694,2	0,031
694,7	0,031
695,1	0,031
695,6	0,031
696	0,031
696,4	0,03
696,9	0,03
697,3	0,03
697,8	0,03
698,2	0,029
698,6	0,029
699,1	0,029
699,5	0,029
699,9	0,029
700,4	0,029
700,8	0,029
701,3	0,029
701,7	0,029
702,1	0,028
702,6	0,028
703	0,028
703,5	0,027
703,9	0,027
704,3	0,027
704,8	0,027
705,2	0,027
705,6	0,027
706,1	0,026
706,5	0,027
707	0,027
707,4	0,026
707,8	0,026
708,3	0,026
708,7	0,026
709,2	0,026
709,6	0,026
710	0,026
710,5	0,025
710,9	0,026
711,3	0,025
711,8	0,026
712,2	0,026
712,7	0,025
713,1	0,025
713,5	0,025
714	0,025
714,4	0,025
714,8	0,024
715,3	0,024
715,7	0,024
716,2	0,024
716,6	0,024
717	0,023
717,5	0,024
717,9	0,023
718,3	0,023
718,8	0,023
719,2	0,023
719,7	0,023
720,1	0,023
720,5	0,023
721	0,023
721,4	0,023
721,8	0,023
722,3	0,023
722,7	0,023
723,2	0,023
723,6	0,023
724	0,023
724,5	0,023
724,9	0,022
725,3	0,022
725,8	0,021
726,2	0,021
726,7	0,021
727,1	0,021
727,5	0,021
728	0,021
728,4	0,021
728,8	0,021
729,3	0,021
729,7	0,021
730,1	0,02
730,6	0,02
731	0,02
731,5	0,02
731,9	0,02
732,3	0,02
732,8	0,02
733,2	0,02
733,6	0,02
734,1	0,02
734,5	0,02
734,9	0,019
735,4	0,019
735,8	0,02
736,3	0,02
736,7	0,02
737,1	0,02
737,6	0,02
738	0,02
738,4	0,02
738,9	0,02
739,3	0,02
739,7	0,02
740,2	0,02
740,6	0,019
741,1	0,019
741,5	0,019
741,9	0,019
742,4	0,018
742,8	0,018
743,2	0,018
743,7	0,018
744,1	0,018
744,5	0,018
745	0,019
745,4	0,019
745,8	0,019
746,3	0,019
746,7	0,019
747,2	0,019
747,6	0,019
748	0,018
748,5	0,018
748,9	0,018
749,3	0,018
749,8	0,018
750,2	0,018
750,6	0,018
751,1	0,018
751,5	0,017
751,9	0,017
752,4	0,017
752,8	0,017
753,3	0,017
753,7	0,017
754,1	0,017
754,6	0,017
755	0,017
755,4	0,017
755,9	0,017
756,3	0,017
756,7	0,017
757,2	0,017
757,6	0,017
758	0,016
758,5	0,017
758,9	0,017
759,3	0,016
759,8	0,016
760,2	0,016
760,6	0,016
761,1	0,016
761,5	0,016
761,9	0,016
762,4	0,016
762,8	0,016
763,3	0,016
763,7	0,016
764,1	0,016
764,6	0,016
765	0,016
765,4	0,016
765,9	0,015
766,3	0,015
766,7	0,015
767,2	0,015
767,6	0,015
768	0,014
768,5	0,015
768,9	0,015
769,3	0,015
769,8	0,015
770,2	0,015
770,6	0,015
771,1	0,016
771,5	0,015
771,9	0,015
772,4	0,014
772,8	0,014
773,2	0,014
773,7	0,014
774,1	0,014
774,5	0,014
775	0,014
775,4	0,015
775,8	0,014
776,3	0,014
776,7	0,014
777,1	0,014
777,6	0,014
778	0,013
778,4	0,013
778,9	0,013
779,3	0,013
779,7	0,013
780,2	0,013
780,6	0,013
781	0,013
781,5	0,014
781,9	0,014
782,3	0,014
782,8	0,014
783,2	0,014
783,6	0,014
784,1	0,014
784,5	0,013
784,9	0,013
785,4	0,013
785,8	0,012
786,2	0,013
786,7	0,013
787,1	0,013
787,5	0,013
788	0,013
788,4	0,013
788,8	0,013
789,3	0,013
789,7	0,013
790,1	0,013
790,6	0,013
791	0,013
791,4	0,013
791,9	0,012
792,3	0,012
792,7	0,012
793,2	0,012
793,6	0,013
794	0,013
794,5	0,013
794,9	0,013
795,3	0,013
795,8	0,013
796,2	0,012
796,6	0,012
797,1	0,012
797,5	0,012
797,9	0,012
798,4	0,012
798,8	0,011
799,2	0,011
799,7	0,011
800,1	0,011
800,5	0,011
801	0,011
801,4	0,011
801,8	0,011
802,2	0,011
802,7	0,011
803,1	0,011
803,5	0,011
804	0,011
804,4	0,011
804,8	0,011
805,3	0,011
805,7	0,011
806,1	0,011
806,6	0,011
807	0,011
807,4	0,011
807,9	0,011
808,3	0,011
808,7	0,011
809,2	0,011
809,6	0,011
810	0,011
810,4	0,011
810,9	0,011
811,3	0,011
811,7	0,011
812,2	0,011
812,6	0,01
813	0,01
813,5	0,01
813,9	0,01
814,3	0,01
814,8	0,01
815,2	0,01
815,6	0,01
816,1	0,01
816,5	0,01
816,9	0,01
817,3	0,01
817,8	0,01
818,2	0,01
818,6	0,01
819,1	0,01
819,5	0,01
819,9	0,01
820,4	0,01
820,8	0,01
821,2	0,01
821,7	0,01
822,1	0,01
822,5	0,01
822,9	0,01
823,4	0,01
823,8	0,01
824,2	0,01
824,7	0,01
825,1	0,01
825,5	0,01
826	0,01
826,4	0,01
826,8	0,01
827,3	0,01
827,7	0,01
828,1	0,01
828,5	0,009
829	0,009
829,4	0,009
829,8	0,009
830,3	0,009
830,7	0,009
831,1	0,009
831,6	0,009
832	0,009
832,4	0,009
832,8	0,009
833,3	0,009
833,7	0,01
834,1	0,009
834,6	0,009
835	0,009
835,4	0,009
835,8	0,009
836,3	0,009
836,7	0,009
837,1	0,01
837,6	0,009
838	0,009
838,4	0,009
838,9	0,009
839,3	0,009
839,7	0,009
840,1	0,009
840,6	0,009
841	0,01
841,4	0,01
841,9	0,01
842,3	0,01
842,7	0,01
843,1	0,01
843,6	0,01
844	0,01
844,4	0,01
844,9	0,009
845,3	0,009
845,7	0,009
846,2	0,009
846,6	0,009
847	0,009
847,4	0,009
847,9	0,009
848,3	0,009
848,7	0,009
849,2	0,009
849,6	0,009
850	0,009
850,4	0,009
850,9	0,009
851,3	0,009
851,7	0,008
852,2	0,008
852,6	0,008
853	0,008
853,4	0,007
853,9	0,008
854,3	0,008
854,7	0,008
855,2	0,007
855,6	0,008
856	0,008
856,4	0,008
856,9	0,008
857,3	0,008
857,7	0,008
858,2	0,008
858,6	0,009
859	0,009
859,4	0,008
859,9	0,009
860,3	0,009
860,7	0,009
861,1	0,009
861,6	0,008
862	0,008
862,4	0,008
862,9	0,007
863,3	0,007
863,7	0,007
864,1	0,007
864,6	0,007
865	0,007
865,4	0,007
865,9	0,008
866,3	0,008
866,7	0,007
867,1	0,007
867,6	0,008
868	0,008
868,4	0,008
868,8	0,007
869,3	0,007
869,7	0,007
870,1	0,007
870,6	0,007
871	0,007
871,4	0,007
871,8	0,007
872,3	0,007
872,7	0,007
873,1	0,007
873,5	0,007
874	0,007
874,4	0,007
874,8	0,007
875,3	0,007
875,7	0,007
876,1	0,007
876,5	0,007
877	0,007
877,4	0,007
877,8	0,007
878,2	0,007
878,7	0,007
879,1	0,007
879,5	0,007
879,9	0,007
880,4	0,007
880,8	0,007
881,2	0,006
881,7	0,007
882,1	0,006
882,5	0,006
882,9	0,006
883,4	0,007
883,8	0,006
884,2	0,006
884,6	0,006
885,1	0,007
885,5	0,007
885,9	0,007
886,3	0,008
886,8	0,008
887,2	0,008
887,6	0,008
888	0,008
888,5	0,007
888,9	0,007
889,3	0,007
889,8	0,006
890,2	0,006
890,6	0,005
891	0,006
891,5	0,006
891,9	0,006
892,3	0,006
892,7	0,006
893,2	0,006
893,6	0,007
894	0,007
894,4	0,007
894,9	0,006
895,3	0,006
895,7	0,007
896,1	0,007
896,6	0,007
897	0,007
897,4	0,007
897,8	0,007
898,3	0,008
898,7	0,007
899,1	0,007
899,5	0,007
900	0,006
900,4	0,006
900,8	0,006
901,2	0,006
901,7	0,006
902,1	0,006
902,5	0,006
902,9	0,007
903,4	0,006
903,8	0,006
904,2	0,006
904,6	0,006
905,1	0,006
905,5	0,006
905,9	0,006
906,3	0,007
906,8	0,006
907,2	0,006
907,6	0,006
908	0,006
908,5	0,006
908,9	0,005
909,3	0,005
909,7	0,005
910,2	0,005
910,6	0,005
911	0,006
911,4	0,006
911,9	0,006
912,3	0,006
912,7	0,006
913,1	0,006
913,6	0,006
914	0,005
914,4	0,005
914,8	0,005
915,3	0,005
915,7	0,006
916,1	0,005
916,5	0,005
916,9	0,006
917,4	0,006
917,8	0,006
918,2	0,006
918,6	0,006
919,1	0,006
919,5	0,006
919,9	0,005
920,3	0,006
920,8	0,006
921,2	0,006
921,6	0,006
922	0,006
922,5	0,006
922,9	0,006
923,3	0,005
923,7	0,005
924,2	0,005
924,6	0,006
925	0,006
925,4	0,006
925,8	0,006
926,3	0,006
926,7	0,007
927,1	0,007
927,5	0,006
928	0,006
928,4	0,006
928,8	0,006
929,2	0,006
929,7	0,006
930,1	0,006
930,5	0,007
930,9	0,007
931,3	0,007
931,8	0,006
932,2	0,007
932,6	0,007
933	0,007
933,5	0,006
933,9	0,006
934,3	0,006
934,7	0,007
935,2	0,006
935,6	0,006
936	0,006
936,4	0,006
936,8	0,006
937,3	0,006
937,7	0,005
938,1	0,006
938,5	0,006
939	0,006
939,4	0,006
939,8	0,006
940,2	0,007
940,6	0,007
941,1	0,007
941,5	0,007
941,9	0,006
942,3	0,007
942,8	0,008
943,2	0,007
943,6	0,007
944	0,007
944,4	0,007
944,9	0,007
945,3	0,006
945,7	0,006
946,1	0,006
946,6	0,006
947	0,007
947,4	0,007
947,8	0,007
948,2	0,008
948,7	0,008
949,1	0,008
949,5	0,008
949,9	0,008
950,3	0,007
950,8	0,008
951,2	0,008
951,6	0,008
952	0,008
952,5	0,008
952,9	0,008
953,3	0,008
953,7	0,007
954,1	0,007
954,6	0,007
955	0,007
955,4	0,007
955,8	0,006
956,2	0,008
956,7	0,008
957,1	0,008
957,5	0,008
957,9	0,008
958,3	0,008
958,8	0,009
959,2	0,008
959,6	0,009
960	0,009
960,5	0,009
960,9	0,009
961,3	0,009
961,7	0,01
962,1	0,011
962,6	0,01
963	0,01
963,4	0,009
963,8	0,009
964,2	0,008
964,7	0,008
965,1	0,007
965,5	0,008
965,9	0,008
966,3	0,009
966,8	0,009
967,2	0,009
967,6	0,009
968	0,009
968,4	0,008
968,9	0,008
969,3	0,007
969,7	0,008
970,1	0,008
970,5	0,009
971	0,009
971,4	0,009
971,8	0,009
972,2	0,01
972,6	0,009
973,1	0,009
973,5	0,008
973,9	0,008
974,3	0,008
974,7	0,008
975,2	0,008
975,6	0,008
976	0,008
976,4	0,008
976,8	0,008
977,3	0,008
977,7	0,007
978,1	0,007
978,5	0,007
978,9	0,007
979,4	0,007
979,8	0,007
980,2	0,006
980,6	0,007
981	0,006
981,5	0,006
981,9	0,006
982,3	0,006
982,7	0,006
983,1	0,007
983,6	0,007
984	0,007
984,4	0,007
984,8	0,007
985,2	0,007
985,6	0,007
986,1	0,007
986,5	0,007
986,9	0,006
987,3	0,005
987,7	0,006
988,2	0,006
988,6	0,005
989	0,005
989,4	0,005
989,8	0,005
990,3	0,005
990,7	0,005
991,1	0,005
991,5	0,006
991,9	0,005
992,3	0,005
992,8	0,004
993,2	0,004
993,6	0,004
994	0,004
994,4	0,004
994,9	0,004
995,3	0,005
995,7	0,005
996,1	0,005
996,5	0,005
996,9	0,005
997,4	0,005
997,8	0,005
998,2	0,004
998,6	0,004
999	0,004
999,5	0,004
999,9	0,005
1000,3	0,004
1000,7	0,004
1001,1	0,004
1001,5	0,004
1002	0,004
1002,4	0,004
1002,8	0,003
1003,2	0,003
1003,6	0,003
1004	0,003
1004,5	0,002
1004,9	0,002
1005,3	0,002
1005,7	0,002
1006,1	0,002
1006,6	0,002
1007	0,002
1007,4	0,003
1007,8	0,003
1008,2	0,004
1008,6	0,004
1009,1	0,005
1009,5	0,004
1009,9	0,005
1010,3	0,004
1010,7	0,004
1011,1	0,003
1011,6	0,002
1012	0,002
1012,4	0,002
1012,8	0,001
1013,2	0,001
1013,6	0,001
1014,1	0,003
1014,5	0,003
1014,9	0,004
1015,3	0,004
1015,7	0,005
1016,1	0,005
1016,6	0,004
1017	0,004
1017,4	0,004
1017,8	0,003
1018,2	0,002
1018,6	0,001
1019,1	0,001
1019,5	0,001
1019,9	0,001
1020,3	0,001
1020,7	0,002
1021,1	0,003
1021,6	0,003
1022	0,004
1022,4	0,004
1022,8	0,005
1023,2	0,004
1023,6	0,003
1024,1	0,004
1024,5	0,003
1024,9	0,002
1025,3	0,002
1025,7	0
1026,1	0,001
1026,6	0,001
1027	0,001
1027,4	0,001
1027,8	0,001
1028,2	0,001
1028,6	0,002
1029	0,002
1029,5	0,002
1029,9	0,002
1030,3	0,002
1030,7	0,002
1031,1	0,001
1031,5	0,001
1032	0,001
1032,4	0
1032,8	0
1033,2	0
1033,6	-0
1034	0
1034,4	0,001
1034,9	0,001
1035,3	0,001
1035,7	0,001
1036,1	0,001
1036,5	0,002
1036,9	0,002
1037,4	0,002
1037,8	0,002
1038,2	0,003
1038,6	0,002
1039	0,002
1039,4	0,002
1039,8	0,002
1040,3	0,002
1040,7	0,002
1041,1	0,002
1041,5	0,003
1041,9	0,002
1042,3	0,003
1042,7	0,002
1043,2	0,002
1043,6	0,002
1044	0,002
1044,4	0,002
1044,8	0,002
1045,2	0,001
1045,6	0,001
1046,1	0,002
1046,5	0,001
1046,9	0,001
1047,3	0,001
1047,7	0,001
1048,1	0,001
1048,5	0,001
1049	0,001
1049,4	0,002
1049,8	0,002
1050,2	0,003
1050,6	0,003
1051	0,003
1051,4	0,004
1051,9	0,004
1052,3	0,004
1052,7	0,004
1053,1	0,004
1053,5	0,004
1053,9	0,004
1054,3	0,004
1054,8	0,004
1055,2	0,004
1055,6	0,004
1056	0,003
1056,4	0,004
1056,8	0,003
1057,2	0,003
1057,6	0,003
1058,1	0,003
1058,5	0,003
1058,9	0,004
1059,3	0,002
1059,7	0,002
1060,1	0,002
1060,5	0,002
1061	0,002
1061,4	0,002
1061,8	0,002
1062,2	0,002
1062,6	0,003
1063	0,002
1063,4	0,002
1063,8	0,002
1064,3	0,002
1064,7	0,001
1065,1	0,002
1065,5	0
1065,9	0
1066,3	0
1066,7	-0,001
1067,1	-0,001
1067,6	-0,001
1068	-0,001
1068,4	-0
1068,8	0,001
1069,2	0,002
1069,6	0,002
1070	0,003
1070,4	0,003
1070,9	0,004
1071,3	0,003
1071,7	0,002
1072,1	0,002
1072,5	0,001
1072,9	0,001
1073,3	0,002
1073,7	0,003
1074,2	0,003
1074,6	0,002
1075	0,003
1075,4	0,004
1075,8	0,003
1076,2	0,001
1076,6	0,001
1077	0,003
1077,5	0,003
1077,9	0,003
1078,3	0,003
1078,7	0,005
1079,1	0,006
1079,5	0,005
1079,9	0,006
1080,3	0,006
1080,7	0,005
1081,2	0,005
1081,6	0,005
1082	0,007
1082,4	0,006
1082,8	0,004
1083,2	0,005
1083,6	0,006
1084	0,006
1084,5	0,008
1084,9	0,005
1085,3	0,006
1085,7	0,006
1086,1	0,007
1086,5	0,006
1086,9	0,004
1087,3	0,002
1087,7	0,003
1088,2	0,004
1088,6	0,006
1089	0,007
1089,4	0,007
1089,8	0,01
1090,2	0,009
1090,6	0,009
1091	0,007
1091,4	0,008
1091,9	0,004
1092,3	0,005
1092,7	0,006
1093,1	0,007
1093,5	0,007
1093,9	0,005
1094,3	0,009
1094,7	0,008
1095,1	0,008
1095,5	0,007
1096	0,001
1096,4	-0,003
1096,8	-0,005
1097,2	-0,008
1097,6	-0,002
1098	-0,004
1098,4	0,003
1098,8	0,009
1099,2	0,007
1099,6	0,013
1100,1	0,008
1100,5	0,004
1100,9	0,006
1101,3	0,001
1101,7	0,007
1102,1	0,004
1102,5	0,01
1102,9	0,006
1103,3	0,002
1103,7	-0,002
1104,2	-0,013
1104,6	-0,01
1105	-0,007
1105,4	-0,011
1105,8	-0,006
1106,2	-0,003
1106,6	0,001
1107	0,014
1107,4	-0,021
1107,8	0,009
1108,3	-0,038
