Data from Absorbance_19-00-08-165.txt Node
Date: Tue Nov 15 19:00:08 MSK 2022
User: vat
Spectrometer: MAYP114033
Trigger mode: 0
Integration Time (sec): 8,000000E-3
Scans to average: 10
Electric dark correction enabled: true
Nonlinearity correction enabled: false
Boxcar width: 3
XAxis mode: Wavelengths
Number of Pixels in Spectrum: 2068
>>>>>Begin Spectral Data<<<<<
199,4	0,184
199,9	0,719
200,4	0,231
200,8	0,183
201,3	0,03
201,8	-0,027
202,2	-0,025
202,7	-0,004
203,2	-0,031
203,6	-0,048
204,1	-0,032
204,6	0,023
205	0,035
205,5	0,047
206	0,024
206,4	0,019
206,9	0,037
207,4	0,028
207,8	-0,008
208,3	0,008
208,8	0,003
209,2	0,008
209,7	0,007
210,2	0,001
210,6	0,009
211,1	0,01
211,5	-0,005
212	-0,026
212,5	-0,008
212,9	0,024
213,4	0,045
213,9	0,044
214,3	0,029
214,8	0,032
215,3	0,065
215,7	0,081
216,2	0,065
216,7	0,067
217,1	0,05
217,6	0,059
218,1	0,049
218,5	0,076
219	0,059
219,5	0,062
219,9	0,059
220,4	0,064
220,9	0,085
221,3	0,082
221,8	0,054
222,3	0,047
222,7	0,035
223,2	0,034
223,6	0,035
224,1	0,014
224,6	0,017
225	0,018
225,5	0,017
226	0,035
226,4	0,049
226,9	0,044
227,4	0,061
227,8	0,076
228,3	0,078
228,8	0,101
229,2	0,092
229,7	0,073
230,2	0,065
230,6	0,048
231,1	0,024
231,5	0,026
232	0,002
232,5	0,016
232,9	0,002
233,4	0,02
233,9	0,042
234,3	0,061
234,8	0,065
235,3	0,099
235,7	0,086
236,2	0,083
236,7	0,075
237,1	0,064
237,6	0,063
238,1	0,08
238,5	0,047
239	0,036
239,4	0,044
239,9	0,061
240,4	0,079
240,8	0,076
241,3	0,046
241,8	0,064
242,2	0,077
242,7	0,093
243,2	0,104
243,6	0,083
244,1	0,105
244,6	0,123
245	0,143
245,5	0,159
245,9	0,164
246,4	0,142
246,9	0,158
247,3	0,147
247,8	0,133
248,3	0,13
248,7	0,137
249,2	0,131
249,7	0,142
250,1	0,166
250,6	0,192
251	0,224
251,5	0,236
252	0,267
252,4	0,279
252,9	0,297
253,4	0,291
253,8	0,295
254,3	0,3
254,8	0,3
255,2	0,295
255,7	0,304
256,1	0,301
256,6	0,31
257,1	0,309
257,5	0,309
258	0,306
258,5	0,305
258,9	0,302
259,4	0,301
259,9	0,295
260,3	0,294
260,8	0,29
261,2	0,287
261,7	0,283
262,2	0,277
262,6	0,274
263,1	0,268
263,6	0,262
264	0,26
264,5	0,258
264,9	0,255
265,4	0,254
265,9	0,252
266,3	0,252
266,8	0,25
267,3	0,248
267,7	0,244
268,2	0,244
268,7	0,242
269,1	0,239
269,6	0,235
270	0,234
270,5	0,231
271	0,23
271,4	0,228
271,9	0,227
272,4	0,225
272,8	0,224
273,3	0,222
273,7	0,221
274,2	0,217
274,7	0,214
275,1	0,212
275,6	0,211
276,1	0,208
276,5	0,206
277	0,205
277,4	0,204
277,9	0,203
278,4	0,2
278,8	0,198
279,3	0,197
279,8	0,195
280,2	0,193
280,7	0,192
281,1	0,19
281,6	0,189
282,1	0,188
282,5	0,187
283	0,186
283,4	0,184
283,9	0,182
284,4	0,181
284,8	0,18
285,3	0,178
285,8	0,176
286,2	0,174
286,7	0,173
287,1	0,171
287,6	0,17
288,1	0,169
288,5	0,168
289	0,168
289,5	0,167
289,9	0,167
290,4	0,165
290,8	0,164
291,3	0,164
291,8	0,163
292,2	0,162
292,7	0,162
293,1	0,162
293,6	0,162
294,1	0,162
294,5	0,162
295	0,163
295,5	0,163
295,9	0,163
296,4	0,163
296,8	0,163
297,3	0,164
297,8	0,164
298,2	0,164
298,7	0,165
299,1	0,166
299,6	0,166
300,1	0,168
300,5	0,169
301	0,17
301,5	0,172
301,9	0,173
302,4	0,173
302,8	0,175
303,3	0,176
303,8	0,178
304,2	0,18
304,7	0,182
305,1	0,184
305,6	0,186
306,1	0,189
306,5	0,191
307	0,193
307,4	0,196
307,9	0,198
308,4	0,2
308,8	0,202
309,3	0,205
309,8	0,208
310,2	0,211
310,7	0,214
311,1	0,217
311,6	0,221
312,1	0,225
312,5	0,228
313	0,231
313,4	0,235
313,9	0,238
314,4	0,241
314,8	0,245
315,3	0,249
315,7	0,253
316,2	0,258
316,7	0,261
317,1	0,265
317,6	0,269
318	0,273
318,5	0,277
319	0,281
319,4	0,284
319,9	0,289
320,3	0,293
320,8	0,298
321,3	0,301
321,7	0,305
322,2	0,308
322,6	0,312
323,1	0,317
323,6	0,321
324	0,325
324,5	0,329
324,9	0,332
325,4	0,337
325,9	0,341
326,3	0,344
326,8	0,346
327,2	0,349
327,7	0,352
328,2	0,356
328,6	0,357
329,1	0,359
329,5	0,361
330	0,364
330,5	0,366
330,9	0,367
331,4	0,367
331,8	0,368
332,3	0,37
332,8	0,37
333,2	0,369
333,7	0,37
334,1	0,371
334,6	0,372
335,1	0,372
335,5	0,37
336	0,369
336,4	0,369
336,9	0,368
337,4	0,365
337,8	0,362
338,3	0,359
338,7	0,356
339,2	0,353
339,7	0,35
340,1	0,346
340,6	0,341
341	0,338
341,5	0,333
342	0,329
342,4	0,324
342,9	0,318
343,3	0,313
343,8	0,308
344,2	0,303
344,7	0,297
345,2	0,292
345,6	0,287
346,1	0,282
346,5	0,277
347	0,272
347,5	0,267
347,9	0,262
348,4	0,257
348,8	0,251
349,3	0,245
349,8	0,24
350,2	0,236
350,7	0,231
351,1	0,228
351,6	0,224
352	0,22
352,5	0,217
353	0,213
353,4	0,21
353,9	0,207
354,3	0,203
354,8	0,199
355,3	0,197
355,7	0,194
356,2	0,191
356,6	0,189
357,1	0,185
357,5	0,184
358	0,181
358,5	0,178
358,9	0,176
359,4	0,173
359,8	0,171
360,3	0,169
360,8	0,167
361,2	0,165
361,7	0,163
362,1	0,162
362,6	0,161
363	0,16
363,5	0,16
364	0,158
364,4	0,158
364,9	0,156
365,3	0,156
365,8	0,155
366,3	0,153
366,7	0,152
367,2	0,151
367,6	0,15
368,1	0,149
368,5	0,147
369	0,146
369,5	0,145
369,9	0,144
370,4	0,144
370,8	0,143
371,3	0,143
371,7	0,142
372,2	0,142
372,7	0,141
373,1	0,141
373,6	0,14
374	0,14
374,5	0,138
374,9	0,138
375,4	0,137
375,9	0,137
376,3	0,136
376,8	0,136
377,2	0,135
377,7	0,136
378,2	0,136
378,6	0,134
379,1	0,135
379,5	0,135
380	0,135
380,4	0,134
380,9	0,133
381,4	0,134
381,8	0,134
382,3	0,133
382,7	0,133
383,2	0,133
383,6	0,133
384,1	0,133
384,6	0,132
385	0,133
385,5	0,133
385,9	0,131
386,4	0,132
386,8	0,131
387,3	0,131
387,7	0,132
388,2	0,131
388,7	0,131
389,1	0,131
389,6	0,132
390	0,132
390,5	0,131
390,9	0,131
391,4	0,131
391,9	0,13
392,3	0,13
392,8	0,13
393,2	0,13
393,7	0,129
394,1	0,129
394,6	0,129
395,1	0,129
395,5	0,13
396	0,13
396,4	0,13
396,9	0,129
397,3	0,129
397,8	0,128
398,2	0,129
398,7	0,128
399,2	0,127
399,6	0,127
400,1	0,128
400,5	0,128
401	0,128
401,4	0,128
401,9	0,128
402,4	0,128
402,8	0,127
403,3	0,127
403,7	0,126
404,2	0,126
404,6	0,126
405,1	0,126
405,5	0,125
406	0,125
406,5	0,125
406,9	0,125
407,4	0,124
407,8	0,123
408,3	0,123
408,7	0,124
409,2	0,123
409,6	0,122
410,1	0,122
410,6	0,122
411	0,122
411,5	0,122
411,9	0,121
412,4	0,122
412,8	0,122
413,3	0,121
413,7	0,121
414,2	0,12
414,7	0,12
415,1	0,12
415,6	0,119
416	0,119
416,5	0,118
416,9	0,117
417,4	0,117
417,8	0,116
418,3	0,115
418,8	0,115
419,2	0,115
419,7	0,115
420,1	0,115
420,6	0,115
421	0,114
421,5	0,115
421,9	0,114
422,4	0,113
422,8	0,113
423,3	0,113
423,8	0,112
424,2	0,112
424,7	0,111
425,1	0,111
425,6	0,111
426	0,11
426,5	0,11
426,9	0,11
427,4	0,11
427,9	0,11
428,3	0,11
428,8	0,109
429,2	0,109
429,7	0,108
430,1	0,107
430,6	0,107
431	0,106
431,5	0,105
431,9	0,104
432,4	0,103
432,8	0,103
433,3	0,102
433,8	0,101
434,2	0,1
434,7	0,1
435,1	0,101
435,6	0,1
436	0,1
436,5	0,099
436,9	0,099
437,4	0,098
437,8	0,098
438,3	0,097
438,8	0,097
439,2	0,097
439,7	0,097
440,1	0,097
440,6	0,097
441	0,097
441,5	0,096
441,9	0,096
442,4	0,096
442,8	0,095
443,3	0,095
443,7	0,094
444,2	0,094
444,7	0,093
445,1	0,093
445,6	0,093
446	0,092
446,5	0,092
446,9	0,091
447,4	0,091
447,8	0,091
448,3	0,091
448,7	0,091
449,2	0,091
449,6	0,091
450,1	0,091
450,6	0,09
451	0,09
451,5	0,089
451,9	0,089
452,4	0,089
452,8	0,089
453,3	0,088
453,7	0,088
454,2	0,087
454,6	0,087
455,1	0,086
455,5	0,086
456	0,085
456,4	0,085
456,9	0,085
457,3	0,085
457,8	0,085
458,3	0,085
458,7	0,085
459,2	0,085
459,6	0,085
460,1	0,085
460,5	0,086
461	0,085
461,4	0,084
461,9	0,084
462,3	0,084
462,8	0,084
463,2	0,083
463,7	0,083
464,1	0,083
464,6	0,084
465	0,083
465,5	0,082
466	0,083
466,4	0,082
466,9	0,081
467,3	0,081
467,8	0,08
468,2	0,08
468,7	0,08
469,1	0,08
469,6	0,08
470	0,08
470,5	0,08
470,9	0,08
471,4	0,079
471,8	0,079
472,3	0,079
472,7	0,08
473,2	0,079
473,6	0,079
474,1	0,08
474,5	0,08
475	0,08
475,4	0,079
475,9	0,078
476,4	0,078
476,8	0,077
477,3	0,076
477,7	0,075
478,2	0,075
478,6	0,075
479,1	0,075
479,5	0,075
480	0,075
480,4	0,075
480,9	0,075
481,3	0,075
481,8	0,075
482,2	0,075
482,7	0,075
483,1	0,074
483,6	0,073
484	0,073
484,5	0,073
484,9	0,073
485,4	0,073
485,8	0,073
486,3	0,073
486,7	0,073
487,2	0,073
487,6	0,073
488,1	0,074
488,5	0,074
489	0,073
489,4	0,072
489,9	0,072
490,4	0,072
490,8	0,072
491,3	0,071
491,7	0,071
492,2	0,071
492,6	0,071
493,1	0,071
493,5	0,071
494	0,071
494,4	0,071
494,9	0,071
495,3	0,071
495,8	0,072
496,2	0,072
496,7	0,072
497,1	0,072
497,6	0,072
498	0,071
498,5	0,071
498,9	0,07
499,4	0,069
499,8	0,069
500,3	0,07
500,7	0,07
501,2	0,07
501,6	0,07
502,1	0,07
502,5	0,07
503	0,069
503,4	0,069
503,9	0,068
504,3	0,068
504,8	0,068
505,2	0,067
505,7	0,067
506,1	0,067
506,6	0,067
507	0,066
507,5	0,066
507,9	0,066
508,4	0,067
508,8	0,066
509,3	0,066
509,7	0,066
510,2	0,066
510,6	0,067
511,1	0,066
511,5	0,066
512	0,065
512,4	0,066
512,9	0,066
513,3	0,065
513,8	0,064
514,2	0,064
514,7	0,065
515,1	0,065
515,6	0,065
516	0,064
516,5	0,064
516,9	0,065
517,4	0,065
517,8	0,064
518,3	0,064
518,7	0,065
519,2	0,065
519,6	0,065
520,1	0,066
520,5	0,066
521	0,065
521,4	0,066
521,9	0,066
522,3	0,066
522,8	0,065
523,2	0,065
523,7	0,064
524,1	0,064
524,6	0,063
525	0,063
525,5	0,063
525,9	0,063
526,4	0,063
526,8	0,063
527,3	0,064
527,7	0,064
528,2	0,064
528,6	0,064
529,1	0,063
529,5	0,063
530	0,063
530,4	0,062
530,9	0,062
531,3	0,061
531,8	0,061
532,2	0,061
532,6	0,061
533,1	0,061
533,5	0,06
534	0,061
534,4	0,061
534,9	0,061
535,3	0,06
535,8	0,06
536,2	0,06
536,7	0,061
537,1	0,061
537,6	0,06
538	0,06
538,5	0,06
538,9	0,06
539,4	0,059
539,8	0,06
540,3	0,06
540,7	0,06
541,2	0,06
541,6	0,06
542,1	0,061
542,5	0,06
543	0,06
543,4	0,06
543,9	0,06
544,3	0,06
544,8	0,06
545,2	0,06
545,7	0,06
546,1	0,06
546,5	0,06
547	0,06
547,4	0,059
547,9	0,059
548,3	0,059
548,8	0,058
549,2	0,058
549,7	0,058
550,1	0,058
550,6	0,059
551	0,058
551,5	0,058
551,9	0,059
552,4	0,058
552,8	0,059
553,3	0,059
553,7	0,058
554,2	0,058
554,6	0,057
555,1	0,057
555,5	0,057
555,9	0,057
556,4	0,057
556,8	0,057
557,3	0,057
557,7	0,057
558,2	0,057
558,6	0,057
559,1	0,056
559,5	0,056
560	0,057
560,4	0,056
560,9	0,056
561,3	0,055
561,8	0,055
562,2	0,055
562,7	0,055
563,1	0,054
563,6	0,054
564	0,054
564,4	0,054
564,9	0,054
565,3	0,054
565,8	0,054
566,2	0,053
566,7	0,053
567,1	0,052
567,6	0,052
568	0,051
568,5	0,051
568,9	0,051
569,4	0,052
569,8	0,051
570,3	0,051
570,7	0,051
571,1	0,051
571,6	0,051
572	0,051
572,5	0,051
572,9	0,052
573,4	0,052
573,8	0,052
574,3	0,051
574,7	0,052
575,2	0,052
575,6	0,051
576,1	0,051
576,5	0,051
576,9	0,051
577,4	0,05
577,8	0,05
578,3	0,05
578,7	0,049
579,2	0,049
579,6	0,049
580,1	0,049
580,5	0,048
581	0,049
581,4	0,049
581,9	0,049
582,3	0,049
582,7	0,049
583,2	0,049
583,6	0,049
584,1	0,048
584,5	0,048
585	0,047
585,4	0,047
585,9	0,047
586,3	0,046
586,8	0,046
587,2	0,046
587,6	0,046
588,1	0,046
588,5	0,046
589	0,045
589,4	0,046
589,9	0,046
590,3	0,045
590,8	0,046
591,2	0,045
591,7	0,046
592,1	0,046
592,5	0,046
593	0,046
593,4	0,046
593,9	0,045
594,3	0,045
594,8	0,044
595,2	0,044
595,7	0,044
596,1	0,043
596,6	0,044
597	0,043
597,4	0,044
597,9	0,044
598,3	0,044
598,8	0,044
599,2	0,044
599,7	0,043
600,1	0,043
600,6	0,042
601	0,042
601,4	0,042
601,9	0,042
602,3	0,041
602,8	0,042
603,2	0,042
603,7	0,042
604,1	0,042
604,6	0,042
605	0,042
605,4	0,042
605,9	0,042
606,3	0,042
606,8	0,042
607,2	0,042
607,7	0,041
608,1	0,041
608,6	0,041
609	0,04
609,4	0,041
609,9	0,04
610,3	0,04
610,8	0,04
611,2	0,039
611,7	0,039
612,1	0,039
612,6	0,039
613	0,04
613,4	0,04
613,9	0,04
614,3	0,04
614,8	0,04
615,2	0,04
615,7	0,039
616,1	0,039
616,6	0,039
617	0,038
617,4	0,038
617,9	0,037
618,3	0,037
618,8	0,037
619,2	0,037
619,7	0,037
620,1	0,038
620,5	0,038
621	0,038
621,4	0,037
621,9	0,036
622,3	0,036
622,8	0,036
623,2	0,036
623,6	0,036
624,1	0,036
624,5	0,036
625	0,036
625,4	0,036
625,9	0,037
626,3	0,037
626,8	0,037
627,2	0,037
627,6	0,037
628,1	0,036
628,5	0,036
629	0,036
629,4	0,036
629,9	0,035
630,3	0,035
630,7	0,035
631,2	0,035
631,6	0,035
632,1	0,034
632,5	0,034
633	0,034
633,4	0,034
633,8	0,033
634,3	0,034
634,7	0,033
635,2	0,033
635,6	0,033
636,1	0,033
636,5	0,032
636,9	0,033
637,4	0,032
637,8	0,032
638,3	0,032
638,7	0,032
639,2	0,032
639,6	0,033
640	0,033
640,5	0,033
640,9	0,033
641,4	0,032
641,8	0,032
642,2	0,032
642,7	0,032
643,1	0,031
643,6	0,031
644	0,031
644,5	0,032
644,9	0,031
645,3	0,031
645,8	0,031
646,2	0,031
646,7	0,031
647,1	0,031
647,6	0,031
648	0,031
648,4	0,031
648,9	0,031
649,3	0,031
649,8	0,03
650,2	0,029
650,6	0,029
651,1	0,029
651,5	0,028
652	0,028
652,4	0,028
652,9	0,029
653,3	0,029
653,7	0,029
654,2	0,028
654,6	0,027
655,1	0,027
655,5	0,018
655,9	0,021
656,4	0,021
656,8	0,021
657,3	0,021
657,7	0,02
658,2	0,019
658,6	0,031
659	0,03
659,5	0,028
659,9	0,028
660,4	0,028
660,8	0,028
661,2	0,028
661,7	0,028
662,1	0,027
662,6	0,027
663	0,027
663,4	0,027
663,9	0,027
664,3	0,026
664,8	0,026
665,2	0,026
665,6	0,025
666,1	0,026
666,5	0,025
667	0,026
667,4	0,026
667,9	0,026
668,3	0,026
668,7	0,026
669,2	0,026
669,6	0,027
670,1	0,026
670,5	0,026
670,9	0,026
671,4	0,026
671,8	0,026
672,3	0,025
672,7	0,025
673,1	0,025
673,6	0,025
674	0,024
674,5	0,024
674,9	0,025
675,3	0,024
675,8	0,024
676,2	0,024
676,7	0,024
677,1	0,024
677,5	0,024
678	0,024
678,4	0,024
678,9	0,024
679,3	0,023
679,7	0,024
680,2	0,023
680,6	0,023
681,1	0,022
681,5	0,022
681,9	0,022
682,4	0,022
682,8	0,022
683,3	0,022
683,7	0,022
684,1	0,022
684,6	0,022
685	0,022
685,5	0,022
685,9	0,022
686,3	0,022
686,8	0,022
687,2	0,022
687,7	0,021
688,1	0,022
688,5	0,022
689	0,022
689,4	0,022
689,9	0,022
690,3	0,022
690,7	0,022
691,2	0,022
691,6	0,022
692	0,022
692,5	0,021
692,9	0,021
693,4	0,021
693,8	0,021
694,2	0,021
694,7	0,021
695,1	0,02
695,6	0,02
696	0,02
696,4	0,02
696,9	0,02
697,3	0,02
697,8	0,02
698,2	0,02
698,6	0,02
699,1	0,02
699,5	0,02
699,9	0,02
700,4	0,019
700,8	0,019
701,3	0,019
701,7	0,019
702,1	0,019
702,6	0,019
703	0,019
703,5	0,019
703,9	0,019
704,3	0,019
704,8	0,019
705,2	0,019
705,6	0,019
706,1	0,019
706,5	0,019
707	0,019
707,4	0,019
707,8	0,018
708,3	0,018
708,7	0,018
709,2	0,018
709,6	0,018
710	0,018
710,5	0,018
710,9	0,018
711,3	0,017
711,8	0,018
712,2	0,018
712,7	0,018
713,1	0,018
713,5	0,018
714	0,018
714,4	0,018
714,8	0,017
715,3	0,017
715,7	0,017
716,2	0,017
716,6	0,017
717	0,016
717,5	0,016
717,9	0,016
718,3	0,016
718,8	0,017
719,2	0,017
719,7	0,017
720,1	0,017
720,5	0,017
721	0,016
721,4	0,016
721,8	0,016
722,3	0,016
722,7	0,016
723,2	0,015
723,6	0,015
724	0,015
724,5	0,015
724,9	0,015
725,3	0,015
725,8	0,015
726,2	0,015
726,7	0,015
727,1	0,015
727,5	0,015
728	0,015
728,4	0,015
728,8	0,015
729,3	0,015
729,7	0,015
730,1	0,015
730,6	0,016
731	0,016
731,5	0,016
731,9	0,016
732,3	0,017
732,8	0,017
733,2	0,017
733,6	0,016
734,1	0,016
734,5	0,015
734,9	0,015
735,4	0,015
735,8	0,015
736,3	0,014
736,7	0,015
737,1	0,015
737,6	0,015
738	0,015
738,4	0,014
738,9	0,014
739,3	0,015
739,7	0,014
740,2	0,014
740,6	0,014
741,1	0,014
741,5	0,014
741,9	0,014
742,4	0,014
742,8	0,014
743,2	0,014
743,7	0,014
744,1	0,014
744,5	0,014
745	0,014
745,4	0,014
745,8	0,014
746,3	0,014
746,7	0,013
747,2	0,013
747,6	0,012
748	0,013
748,5	0,012
748,9	0,012
749,3	0,012
749,8	0,012
750,2	0,012
750,6	0,013
751,1	0,013
751,5	0,013
751,9	0,013
752,4	0,013
752,8	0,012
753,3	0,012
753,7	0,012
754,1	0,012
754,6	0,012
755	0,012
755,4	0,012
755,9	0,012
756,3	0,012
756,7	0,012
757,2	0,012
757,6	0,012
758	0,012
758,5	0,012
758,9	0,012
759,3	0,011
759,8	0,012
760,2	0,012
760,6	0,011
761,1	0,011
761,5	0,011
761,9	0,011
762,4	0,011
762,8	0,011
763,3	0,011
763,7	0,011
764,1	0,011
764,6	0,011
765	0,011
765,4	0,011
765,9	0,01
766,3	0,01
766,7	0,01
767,2	0,01
767,6	0,01
768	0,01
768,5	0,01
768,9	0,01
769,3	0,01
769,8	0,01
770,2	0,009
770,6	0,009
771,1	0,009
771,5	0,009
771,9	0,009
772,4	0,009
772,8	0,009
773,2	0,009
773,7	0,01
774,1	0,01
774,5	0,009
775	0,009
775,4	0,01
775,8	0,01
776,3	0,01
776,7	0,01
777,1	0,01
777,6	0,01
778	0,01
778,4	0,01
778,9	0,009
779,3	0,009
779,7	0,009
780,2	0,009
780,6	0,009
781	0,009
781,5	0,009
781,9	0,009
782,3	0,009
782,8	0,009
783,2	0,009
783,6	0,009
784,1	0,009
784,5	0,009
784,9	0,009
785,4	0,009
785,8	0,009
786,2	0,009
786,7	0,009
787,1	0,009
787,5	0,009
788	0,009
788,4	0,008
788,8	0,008
789,3	0,008
789,7	0,008
790,1	0,007
790,6	0,007
791	0,007
791,4	0,007
791,9	0,007
792,3	0,007
792,7	0,007
793,2	0,008
793,6	0,008
794	0,008
794,5	0,008
794,9	0,008
795,3	0,009
795,8	0,009
796,2	0,009
796,6	0,008
797,1	0,008
797,5	0,008
797,9	0,008
798,4	0,008
798,8	0,008
799,2	0,008
799,7	0,008
800,1	0,008
800,5	0,007
801	0,007
801,4	0,007
801,8	0,007
802,2	0,007
802,7	0,007
803,1	0,007
803,5	0,007
804	0,007
804,4	0,007
804,8	0,007
805,3	0,007
805,7	0,007
806,1	0,007
806,6	0,007
807	0,007
807,4	0,006
807,9	0,006
808,3	0,007
808,7	0,006
809,2	0,006
809,6	0,006
810	0,006
810,4	0,006
810,9	0,006
811,3	0,006
811,7	0,006
812,2	0,006
812,6	0,006
813	0,006
813,5	0,006
813,9	0,006
814,3	0,006
814,8	0,007
815,2	0,007
815,6	0,007
816,1	0,007
816,5	0,007
816,9	0,007
817,3	0,007
817,8	0,007
818,2	0,007
818,6	0,007
819,1	0,007
819,5	0,007
819,9	0,006
820,4	0,006
820,8	0,006
821,2	0,006
821,7	0,006
822,1	0,006
822,5	0,006
822,9	0,007
823,4	0,007
823,8	0,007
824,2	0,007
824,7	0,007
825,1	0,006
825,5	0,006
826	0,006
826,4	0,006
826,8	0,006
827,3	0,006
827,7	0,006
828,1	0,006
828,5	0,006
829	0,006
829,4	0,006
829,8	0,006
830,3	0,006
830,7	0,005
831,1	0,006
831,6	0,006
832	0,006
832,4	0,006
832,8	0,006
833,3	0,006
833,7	0,006
834,1	0,006
834,6	0,006
835	0,006
835,4	0,006
835,8	0,006
836,3	0,006
836,7	0,006
837,1	0,006
837,6	0,006
838	0,006
838,4	0,005
838,9	0,005
839,3	0,005
839,7	0,005
840,1	0,005
840,6	0,005
841	0,005
841,4	0,005
841,9	0,006
842,3	0,005
842,7	0,006
843,1	0,006
843,6	0,006
844	0,006
844,4	0,007
844,9	0,007
845,3	0,006
845,7	0,006
846,2	0,006
846,6	0,006
847	0,006
847,4	0,006
847,9	0,006
848,3	0,006
848,7	0,006
849,2	0,006
849,6	0,006
850	0,006
850,4	0,005
850,9	0,005
851,3	0,005
851,7	0,005
852,2	0,005
852,6	0,004
853	0,004
853,4	0,004
853,9	0,004
854,3	0,004
854,7	0,005
855,2	0,005
855,6	0,005
856	0,006
856,4	0,006
856,9	0,006
857,3	0,006
857,7	0,006
858,2	0,006
858,6	0,006
859	0,006
859,4	0,006
859,9	0,006
860,3	0,006
860,7	0,006
861,1	0,006
861,6	0,006
862	0,005
862,4	0,005
862,9	0,005
863,3	0,005
863,7	0,006
864,1	0,005
864,6	0,005
865	0,005
865,4	0,005
865,9	0,004
866,3	0,004
866,7	0,004
867,1	0,004
867,6	0,005
868	0,005
868,4	0,005
868,8	0,005
869,3	0,005
869,7	0,005
870,1	0,005
870,6	0,004
871	0,004
871,4	0,004
871,8	0,005
872,3	0,005
872,7	0,004
873,1	0,005
873,5	0,005
874	0,005
874,4	0,005
874,8	0,005
875,3	0,005
875,7	0,005
876,1	0,005
876,5	0,005
877	0,004
877,4	0,004
877,8	0,004
878,2	0,004
878,7	0,004
879,1	0,003
879,5	0,003
879,9	0,004
880,4	0,004
880,8	0,004
881,2	0,004
881,7	0,004
882,1	0,004
882,5	0,005
882,9	0,005
883,4	0,005
883,8	0,005
884,2	0,005
884,6	0,005
885,1	0,005
885,5	0,005
885,9	0,004
886,3	0,004
886,8	0,004
887,2	0,004
887,6	0,004
888	0,004
888,5	0,004
888,9	0,004
889,3	0,004
889,8	0,004
890,2	0,004
890,6	0,004
891	0,004
891,5	0,004
891,9	0,004
892,3	0,004
892,7	0,004
893,2	0,004
893,6	0,004
894	0,004
894,4	0,004
894,9	0,004
895,3	0,004
895,7	0,004
896,1	0,004
896,6	0,004
897	0,004
897,4	0,004
897,8	0,004
898,3	0,004
898,7	0,004
899,1	0,004
899,5	0,004
900	0,004
900,4	0,005
900,8	0,005
901,2	0,005
901,7	0,005
902,1	0,005
902,5	0,005
902,9	0,005
903,4	0,004
903,8	0,004
904,2	0,004
904,6	0,004
905,1	0,004
905,5	0,005
905,9	0,004
906,3	0,004
906,8	0,005
907,2	0,005
907,6	0,005
908	0,005
908,5	0,005
908,9	0,005
909,3	0,005
909,7	0,004
910,2	0,004
910,6	0,005
911	0,005
911,4	0,004
911,9	0,004
912,3	0,004
912,7	0,004
913,1	0,004
913,6	0,004
914	0,004
914,4	0,004
914,8	0,005
915,3	0,005
915,7	0,004
916,1	0,004
916,5	0,004
916,9	0,004
917,4	0,004
917,8	0,004
918,2	0,004
918,6	0,004
919,1	0,004
919,5	0,004
919,9	0,004
920,3	0,005
920,8	0,004
921,2	0,004
921,6	0,004
922	0,004
922,5	0,004
922,9	0,004
923,3	0,004
923,7	0,004
924,2	0,005
924,6	0,005
925	0,005
925,4	0,005
925,8	0,005
926,3	0,005
926,7	0,006
927,1	0,005
927,5	0,005
928	0,005
928,4	0,005
928,8	0,005
929,2	0,004
929,7	0,005
930,1	0,005
930,5	0,005
930,9	0,005
931,3	0,005
931,8	0,005
932,2	0,005
932,6	0,005
933	0,005
933,5	0,005
933,9	0,005
934,3	0,006
934,7	0,006
935,2	0,006
935,6	0,007
936	0,007
936,4	0,007
936,8	0,007
937,3	0,006
937,7	0,006
938,1	0,005
938,5	0,006
939	0,006
939,4	0,006
939,8	0,006
940,2	0,005
940,6	0,006
941,1	0,006
941,5	0,005
941,9	0,004
942,3	0,005
942,8	0,005
943,2	0,006
943,6	0,005
944	0,006
944,4	0,006
944,9	0,007
945,3	0,007
945,7	0,007
946,1	0,008
946,6	0,009
947	0,009
947,4	0,008
947,8	0,008
948,2	0,008
948,7	0,008
949,1	0,008
949,5	0,008
949,9	0,007
950,3	0,008
950,8	0,008
951,2	0,008
951,6	0,008
952	0,009
952,5	0,008
952,9	0,009
953,3	0,008
953,7	0,009
954,1	0,009
954,6	0,01
955	0,01
955,4	0,01
955,8	0,01
956,2	0,011
956,7	0,01
957,1	0,01
957,5	0,009
957,9	0,01
958,3	0,01
958,8	0,01
959,2	0,01
959,6	0,011
960	0,01
960,5	0,01
960,9	0,011
961,3	0,011
961,7	0,011
962,1	0,011
962,6	0,011
963	0,012
963,4	0,012
963,8	0,011
964,2	0,011
964,7	0,011
965,1	0,011
965,5	0,011
965,9	0,011
966,3	0,011
966,8	0,011
967,2	0,011
967,6	0,011
968	0,01
968,4	0,01
968,9	0,009
969,3	0,009
969,7	0,009
970,1	0,009
970,5	0,009
971	0,009
971,4	0,009
971,8	0,009
972,2	0,009
972,6	0,01
973,1	0,01
973,5	0,009
973,9	0,01
974,3	0,01
974,7	0,011
975,2	0,01
975,6	0,01
976	0,01
976,4	0,01
976,8	0,009
977,3	0,008
977,7	0,008
978,1	0,008
978,5	0,008
978,9	0,008
979,4	0,008
979,8	0,008
980,2	0,008
980,6	0,008
981	0,008
981,5	0,007
981,9	0,007
982,3	0,008
982,7	0,008
983,1	0,008
983,6	0,008
984	0,008
984,4	0,008
984,8	0,007
985,2	0,007
985,6	0,006
986,1	0,006
986,5	0,006
986,9	0,006
987,3	0,007
987,7	0,008
988,2	0,008
988,6	0,007
989	0,007
989,4	0,006
989,8	0,006
990,3	0,006
990,7	0,005
991,1	0,005
991,5	0,005
991,9	0,005
992,3	0,005
992,8	0,005
993,2	0,005
993,6	0,005
994	0,005
994,4	0,004
994,9	0,004
995,3	0,003
995,7	0,003
996,1	0,003
996,5	0,003
996,9	0,003
997,4	0,003
997,8	0,003
998,2	0,004
998,6	0,004
999	0,004
999,5	0,004
999,9	0,005
1000,3	0,004
1000,7	0,003
1001,1	0,002
1001,5	0,003
1002	0,002
1002,4	0,002
1002,8	0,002
1003,2	0,002
1003,6	0,002
1004	0,003
1004,5	0,003
1004,9	0,004
1005,3	0,004
1005,7	0,004
1006,1	0,003
1006,6	0,004
1007	0,004
1007,4	0,003
1007,8	0,003
1008,2	0,003
1008,6	0,003
1009,1	0,003
1009,5	0,003
1009,9	0,003
1010,3	0,003
1010,7	0,002
1011,1	0,002
1011,6	0,001
1012	0,001
1012,4	0,001
1012,8	0,001
1013,2	0,002
1013,6	0,002
1014,1	0,002
1014,5	0,003
1014,9	0,002
1015,3	0,002
1015,7	0,002
1016,1	0,002
1016,6	0,002
1017	0,001
1017,4	0,001
1017,8	0,001
1018,2	0
1018,6	-0
1019,1	-0
1019,5	-0,001
1019,9	-0,001
1020,3	-0,001
1020,7	-0,001
1021,1	-0
1021,6	0
1022	0,001
1022,4	0,001
1022,8	0,002
1023,2	0,001
1023,6	0,001
1024,1	0,001
1024,5	0,001
1024,9	0
1025,3	0
1025,7	0
1026,1	0,002
1026,6	0,001
1027	0,001
1027,4	0,001
1027,8	0,001
1028,2	0,001
1028,6	0,001
1029	-0
1029,5	-0
1029,9	0,001
1030,3	0
1030,7	-0
1031,1	-0
1031,5	-0
1032	-0,001
1032,4	-0,001
1032,8	-0,002
1033,2	-0,001
1033,6	-0
1034	-0
1034,4	-0,001
1034,9	0,001
1035,3	0,001
1035,7	0,002
1036,1	0,002
1036,5	0,002
1036,9	0,002
1037,4	0,003
1037,8	0,002
1038,2	0,002
1038,6	0,001
1039	0,002
1039,4	0,002
1039,8	0,003
1040,3	0,002
1040,7	0,001
1041,1	0,001
1041,5	0,001
1041,9	0,002
1042,3	0,001
1042,7	0,001
1043,2	0,002
1043,6	0,003
1044	0,003
1044,4	0,002
1044,8	0,002
1045,2	0,003
1045,6	0,003
1046,1	0,002
1046,5	0,002
1046,9	0,003
1047,3	0,003
1047,7	0,002
1048,1	0,002
1048,5	0,002
1049	0,003
1049,4	0,002
1049,8	0,001
1050,2	0,001
1050,6	0,001
1051	0,002
1051,4	0,001
1051,9	0,001
1052,3	0,001
1052,7	0,001
1053,1	0,001
1053,5	0,002
1053,9	0,001
1054,3	0,001
1054,8	0
1055,2	0
1055,6	0,002
1056	0,002
1056,4	0,002
1056,8	0,003
1057,2	0,003
1057,6	0,004
1058,1	0,004
1058,5	0,003
1058,9	0,003
1059,3	0,002
1059,7	-0
1060,1	-0
1060,5	-0,001
1061	0
1061,4	0
1061,8	-0
1062,2	0,001
1062,6	0,001
1063	0,001
1063,4	0
1063,8	0,001
1064,3	0,001
1064,7	0,002
1065,1	0,002
1065,5	0,003
1065,9	0,004
1066,3	0,005
1066,7	0,006
1067,1	0,006
1067,6	0,005
1068	0,005
1068,4	0,005
1068,8	0,004
1069,2	0,002
1069,6	0,002
1070	0,002
1070,4	0,001
1070,9	0,001
1071,3	0
1071,7	0,001
1072,1	0,001
1072,5	0
1072,9	0,001
1073,3	0,002
1073,7	0,003
1074,2	0,003
1074,6	0,003
1075	0,003
1075,4	0,004
1075,8	0,003
1076,2	0,003
1076,6	0,003
1077	0,003
1077,5	0,003
1077,9	0,003
1078,3	0,002
1078,7	0,002
1079,1	0,001
1079,5	0,001
1079,9	0,002
1080,3	0,004
1080,7	0,003
1081,2	0,004
1081,6	0,006
1082	0,007
1082,4	0,007
1082,8	0,006
1083,2	0,004
1083,6	0,003
1084	0,001
1084,5	-0,004
1084,9	-0,002
1085,3	-0,001
1085,7	-0,002
1086,1	-0,001
1086,5	0,001
1086,9	0,002
1087,3	0,006
1087,7	0,003
1088,2	0
1088,6	0,004
1089	0,006
1089,4	0,007
1089,8	0,006
1090,2	0,003
1090,6	0,004
1091	0,006
1091,4	0,004
1091,9	0,001
1092,3	0,003
1092,7	0,011
1093,1	0,012
1093,5	0,007
1093,9	0,009
1094,3	0,009
1094,7	0,014
1095,1	0,013
1095,5	0,005
1096	0,008
1096,4	0,013
1096,8	0,013
1097,2	-0,002
1097,6	-0,009
1098	-0,019
1098,4	-0,023
1098,8	-0,022
1099,2	-0,023
1099,6	-0,029
1100,1	-0,022
1100,5	-0,026
1100,9	-0,022
1101,3	-0,027
1101,7	-0,028
1102,1	-0,028
1102,5	-0,016
1102,9	-0,023
1103,3	-0,002
1103,7	-0,001
1104,2	0,013
1104,6	0,017
1105	0,005
1105,4	0,001
1105,8	0,019
1106,2	0,003
1106,6	0,017
1107	0,041
1107,4	0,019
1107,8	0,124
1108,3	-0
