Data from Absorbance_18-52-20-373.txt Node
Date: Tue Nov 15 18:52:20 MSK 2022
User: vat
Spectrometer: MAYP114033
Trigger mode: 0
Integration Time (sec): 8,000000E-3
Scans to average: 10
Electric dark correction enabled: true
Nonlinearity correction enabled: false
Boxcar width: 3
XAxis mode: Wavelengths
Number of Pixels in Spectrum: 2068
>>>>>Begin Spectral Data<<<<<
199,4	-0,265
199,9	-0,155
200,4	0,003
200,8	-0,034
201,3	0,027
201,8	-0,016
202,2	-0,012
202,7	0,01
203,2	0,008
203,6	-0,028
204,1	0
204,6	0,012
205	0,024
205,5	0,031
206	0,034
206,4	0,034
206,9	0,059
207,4	0,049
207,8	0,015
208,3	-0,008
208,8	-0,018
209,2	-0,005
209,7	0,009
210,2	0,006
210,6	0,007
211,1	0,011
211,5	0,027
212	0,021
212,5	0,03
212,9	0,035
213,4	0,04
213,9	0,066
214,3	0,05
214,8	0,062
215,3	0,084
215,7	0,085
216,2	0,091
216,7	0,102
217,1	0,079
217,6	0,116
218,1	0,081
218,5	0,088
219	0,064
219,5	0,063
219,9	0,054
220,4	0,067
220,9	0,068
221,3	0,105
221,8	0,08
222,3	0,083
222,7	0,082
223,2	0,094
223,6	0,075
224,1	0,05
224,6	0,026
225	0,073
225,5	0,083
226	0,074
226,4	0,091
226,9	0,085
227,4	0,102
227,8	0,11
228,3	0,097
228,8	0,088
229,2	0,089
229,7	0,071
230,2	0,064
230,6	0,063
231,1	0,065
231,5	0,064
232	0,073
232,5	0,078
232,9	0,07
233,4	0,096
233,9	0,109
234,3	0,108
234,8	0,096
235,3	0,107
235,7	0,096
236,2	0,087
236,7	0,074
237,1	0,056
237,6	0,056
238,1	0,05
238,5	0,042
239	0,025
239,4	0,024
239,9	0,035
240,4	0,04
240,8	0,039
241,3	0,059
241,8	0,074
242,2	0,08
242,7	0,082
243,2	0,087
243,6	0,085
244,1	0,095
244,6	0,083
245	0,071
245,5	0,088
245,9	0,093
246,4	0,066
246,9	0,072
247,3	0,072
247,8	0,063
248,3	0,064
248,7	0,059
249,2	0,053
249,7	0,067
250,1	0,076
250,6	0,077
251	0,094
251,5	0,097
252	0,104
252,4	0,109
252,9	0,12
253,4	0,116
253,8	0,123
254,3	0,124
254,8	0,128
255,2	0,123
255,7	0,122
256,1	0,118
256,6	0,119
257,1	0,116
257,5	0,116
258	0,114
258,5	0,115
258,9	0,116
259,4	0,116
259,9	0,116
260,3	0,116
260,8	0,114
261,2	0,113
261,7	0,111
262,2	0,107
262,6	0,106
263,1	0,104
263,6	0,102
264	0,099
264,5	0,099
264,9	0,098
265,4	0,1
265,9	0,1
266,3	0,099
266,8	0,099
267,3	0,101
267,7	0,1
268,2	0,1
268,7	0,098
269,1	0,098
269,6	0,098
270	0,097
270,5	0,097
271	0,097
271,4	0,096
271,9	0,098
272,4	0,097
272,8	0,096
273,3	0,096
273,7	0,095
274,2	0,093
274,7	0,093
275,1	0,092
275,6	0,091
276,1	0,091
276,5	0,092
277	0,091
277,4	0,09
277,9	0,091
278,4	0,09
278,8	0,09
279,3	0,09
279,8	0,088
280,2	0,089
280,7	0,089
281,1	0,088
281,6	0,088
282,1	0,088
282,5	0,086
283	0,086
283,4	0,085
283,9	0,085
284,4	0,084
284,8	0,083
285,3	0,082
285,8	0,082
286,2	0,082
286,7	0,081
287,1	0,08
287,6	0,08
288,1	0,08
288,5	0,081
289	0,08
289,5	0,08
289,9	0,08
290,4	0,079
290,8	0,077
291,3	0,077
291,8	0,076
292,2	0,076
292,7	0,076
293,1	0,075
293,6	0,075
294,1	0,076
294,5	0,077
295	0,077
295,5	0,077
295,9	0,077
296,4	0,077
296,8	0,077
297,3	0,077
297,8	0,076
298,2	0,076
298,7	0,076
299,1	0,076
299,6	0,076
300,1	0,076
300,5	0,076
301	0,075
301,5	0,075
301,9	0,075
302,4	0,075
302,8	0,075
303,3	0,075
303,8	0,075
304,2	0,075
304,7	0,074
305,1	0,074
305,6	0,074
306,1	0,074
306,5	0,074
307	0,074
307,4	0,074
307,9	0,075
308,4	0,074
308,8	0,074
309,3	0,074
309,8	0,073
310,2	0,073
310,7	0,072
311,1	0,072
311,6	0,072
312,1	0,072
312,5	0,072
313	0,072
313,4	0,071
313,9	0,072
314,4	0,071
314,8	0,072
315,3	0,071
315,7	0,071
316,2	0,07
316,7	0,071
317,1	0,071
317,6	0,071
318	0,071
318,5	0,071
319	0,071
319,4	0,071
319,9	0,07
320,3	0,07
320,8	0,07
321,3	0,07
321,7	0,069
322,2	0,07
322,6	0,07
323,1	0,07
323,6	0,07
324	0,07
324,5	0,07
324,9	0,071
325,4	0,071
325,9	0,071
326,3	0,071
326,8	0,071
327,2	0,071
327,7	0,071
328,2	0,071
328,6	0,071
329,1	0,07
329,5	0,07
330	0,07
330,5	0,07
330,9	0,071
331,4	0,07
331,8	0,069
332,3	0,069
332,8	0,069
333,2	0,069
333,7	0,07
334,1	0,069
334,6	0,07
335,1	0,07
335,5	0,071
336	0,071
336,4	0,07
336,9	0,07
337,4	0,07
337,8	0,069
338,3	0,069
338,7	0,069
339,2	0,069
339,7	0,069
340,1	0,069
340,6	0,07
341	0,07
341,5	0,071
342	0,071
342,4	0,071
342,9	0,071
343,3	0,071
343,8	0,071
344,2	0,071
344,7	0,071
345,2	0,071
345,6	0,072
346,1	0,072
346,5	0,073
347	0,073
347,5	0,073
347,9	0,073
348,4	0,073
348,8	0,073
349,3	0,072
349,8	0,071
350,2	0,071
350,7	0,071
351,1	0,072
351,6	0,072
352	0,071
352,5	0,071
353	0,071
353,4	0,071
353,9	0,071
354,3	0,071
354,8	0,072
355,3	0,072
355,7	0,073
356,2	0,073
356,6	0,074
357,1	0,075
357,5	0,074
358	0,073
358,5	0,074
358,9	0,073
359,4	0,074
359,8	0,073
360,3	0,072
360,8	0,072
361,2	0,072
361,7	0,072
362,1	0,072
362,6	0,072
363	0,072
363,5	0,074
364	0,074
364,4	0,075
364,9	0,075
365,3	0,075
365,8	0,075
366,3	0,075
366,7	0,073
367,2	0,072
367,6	0,072
368,1	0,071
368,5	0,071
369	0,07
369,5	0,071
369,9	0,07
370,4	0,071
370,8	0,071
371,3	0,071
371,7	0,072
372,2	0,072
372,7	0,072
373,1	0,072
373,6	0,071
374	0,072
374,5	0,071
374,9	0,071
375,4	0,071
375,9	0,071
376,3	0,071
376,8	0,073
377,2	0,073
377,7	0,073
378,2	0,074
378,6	0,074
379,1	0,075
379,5	0,075
380	0,074
380,4	0,073
380,9	0,073
381,4	0,072
381,8	0,071
382,3	0,071
382,7	0,071
383,2	0,071
383,6	0,072
384,1	0,072
384,6	0,072
385	0,072
385,5	0,072
385,9	0,071
386,4	0,072
386,8	0,072
387,3	0,073
387,7	0,073
388,2	0,074
388,7	0,075
389,1	0,075
389,6	0,075
390	0,075
390,5	0,075
390,9	0,074
391,4	0,074
391,9	0,073
392,3	0,073
392,8	0,073
393,2	0,073
393,7	0,073
394,1	0,072
394,6	0,072
395,1	0,073
395,5	0,073
396	0,074
396,4	0,073
396,9	0,073
397,3	0,074
397,8	0,074
398,2	0,074
398,7	0,073
399,2	0,073
399,6	0,074
400,1	0,074
400,5	0,075
401	0,075
401,4	0,075
401,9	0,075
402,4	0,075
402,8	0,075
403,3	0,074
403,7	0,074
404,2	0,075
404,6	0,075
405,1	0,075
405,5	0,074
406	0,073
406,5	0,074
406,9	0,074
407,4	0,073
407,8	0,073
408,3	0,073
408,7	0,074
409,2	0,073
409,6	0,073
410,1	0,073
410,6	0,074
411	0,074
411,5	0,075
411,9	0,074
412,4	0,074
412,8	0,075
413,3	0,074
413,7	0,075
414,2	0,075
414,7	0,074
415,1	0,075
415,6	0,075
416	0,074
416,5	0,074
416,9	0,074
417,4	0,074
417,8	0,074
418,3	0,074
418,8	0,074
419,2	0,074
419,7	0,074
420,1	0,074
420,6	0,075
421	0,075
421,5	0,075
421,9	0,074
422,4	0,074
422,8	0,074
423,3	0,073
423,8	0,073
424,2	0,073
424,7	0,074
425,1	0,074
425,6	0,075
426	0,075
426,5	0,075
426,9	0,075
427,4	0,074
427,9	0,074
428,3	0,074
428,8	0,074
429,2	0,073
429,7	0,073
430,1	0,074
430,6	0,074
431	0,074
431,5	0,073
431,9	0,073
432,4	0,073
432,8	0,073
433,3	0,073
433,8	0,073
434,2	0,073
434,7	0,074
435,1	0,074
435,6	0,074
436	0,075
436,5	0,075
436,9	0,075
437,4	0,075
437,8	0,074
438,3	0,074
438,8	0,074
439,2	0,074
439,7	0,073
440,1	0,074
440,6	0,075
441	0,074
441,5	0,074
441,9	0,074
442,4	0,074
442,8	0,074
443,3	0,074
443,7	0,074
444,2	0,074
444,7	0,075
445,1	0,075
445,6	0,076
446	0,076
446,5	0,076
446,9	0,076
447,4	0,077
447,8	0,077
448,3	0,077
448,7	0,077
449,2	0,077
449,6	0,077
450,1	0,076
450,6	0,076
451	0,077
451,5	0,077
451,9	0,077
452,4	0,077
452,8	0,078
453,3	0,079
453,7	0,079
454,2	0,078
454,6	0,078
455,1	0,077
455,5	0,077
456	0,077
456,4	0,078
456,9	0,078
457,3	0,078
457,8	0,078
458,3	0,079
458,7	0,08
459,2	0,08
459,6	0,08
460,1	0,081
460,5	0,083
461	0,083
461,4	0,083
461,9	0,083
462,3	0,083
462,8	0,083
463,2	0,083
463,7	0,083
464,1	0,084
464,6	0,085
465	0,085
465,5	0,085
466	0,086
466,4	0,086
466,9	0,086
467,3	0,086
467,8	0,085
468,2	0,086
468,7	0,086
469,1	0,086
469,6	0,087
470	0,087
470,5	0,088
470,9	0,088
471,4	0,088
471,8	0,089
472,3	0,09
472,7	0,089
473,2	0,09
473,6	0,09
474,1	0,091
474,5	0,091
475	0,091
475,4	0,092
475,9	0,091
476,4	0,091
476,8	0,092
477,3	0,091
477,7	0,092
478,2	0,092
478,6	0,092
479,1	0,093
479,5	0,093
480	0,094
480,4	0,095
480,9	0,095
481,3	0,095
481,8	0,095
482,2	0,095
482,7	0,096
483,1	0,096
483,6	0,096
484	0,096
484,5	0,097
484,9	0,098
485,4	0,098
485,8	0,098
486,3	0,099
486,7	0,099
487,2	0,099
487,6	0,1
488,1	0,101
488,5	0,102
489	0,102
489,4	0,102
489,9	0,102
490,4	0,102
490,8	0,102
491,3	0,102
491,7	0,102
492,2	0,103
492,6	0,104
493,1	0,105
493,5	0,105
494	0,106
494,4	0,106
494,9	0,106
495,3	0,106
495,8	0,106
496,2	0,107
496,7	0,107
497,1	0,107
497,6	0,108
498	0,108
498,5	0,108
498,9	0,108
499,4	0,108
499,8	0,108
500,3	0,108
500,7	0,108
501,2	0,109
501,6	0,11
502,1	0,11
502,5	0,111
503	0,112
503,4	0,112
503,9	0,112
504,3	0,112
504,8	0,112
505,2	0,113
505,7	0,112
506,1	0,113
506,6	0,113
507	0,113
507,5	0,113
507,9	0,114
508,4	0,113
508,8	0,114
509,3	0,114
509,7	0,114
510,2	0,114
510,6	0,115
511,1	0,115
511,5	0,115
512	0,114
512,4	0,115
512,9	0,115
513,3	0,116
513,8	0,116
514,2	0,116
514,7	0,116
515,1	0,116
515,6	0,116
516	0,117
516,5	0,117
516,9	0,117
517,4	0,117
517,8	0,117
518,3	0,118
518,7	0,118
519,2	0,118
519,6	0,118
520,1	0,117
520,5	0,117
521	0,117
521,4	0,117
521,9	0,117
522,3	0,117
522,8	0,117
523,2	0,117
523,7	0,117
524,1	0,117
524,6	0,117
525	0,116
525,5	0,117
525,9	0,117
526,4	0,117
526,8	0,117
527,3	0,117
527,7	0,117
528,2	0,118
528,6	0,117
529,1	0,117
529,5	0,117
530	0,117
530,4	0,117
530,9	0,116
531,3	0,116
531,8	0,117
532,2	0,116
532,6	0,116
533,1	0,117
533,5	0,116
534	0,117
534,4	0,116
534,9	0,116
535,3	0,116
535,8	0,116
536,2	0,116
536,7	0,115
537,1	0,114
537,6	0,114
538	0,113
538,5	0,113
538,9	0,113
539,4	0,113
539,8	0,113
540,3	0,113
540,7	0,114
541,2	0,114
541,6	0,115
542,1	0,115
542,5	0,114
543	0,114
543,4	0,114
543,9	0,114
544,3	0,114
544,8	0,114
545,2	0,114
545,7	0,115
546,1	0,114
546,5	0,114
547	0,114
547,4	0,113
547,9	0,113
548,3	0,113
548,8	0,112
549,2	0,112
549,7	0,112
550,1	0,113
550,6	0,113
551	0,112
551,5	0,112
551,9	0,112
552,4	0,112
552,8	0,111
553,3	0,111
553,7	0,11
554,2	0,111
554,6	0,11
555,1	0,111
555,5	0,111
555,9	0,111
556,4	0,112
556,8	0,111
557,3	0,11
557,7	0,11
558,2	0,11
558,6	0,109
559,1	0,107
559,5	0,106
560	0,107
560,4	0,107
560,9	0,107
561,3	0,106
561,8	0,106
562,2	0,107
562,7	0,107
563,1	0,106
563,6	0,106
564	0,106
564,4	0,105
564,9	0,105
565,3	0,105
565,8	0,105
566,2	0,104
566,7	0,103
567,1	0,103
567,6	0,102
568	0,102
568,5	0,101
568,9	0,101
569,4	0,101
569,8	0,101
570,3	0,1
570,7	0,1
571,1	0,1
571,6	0,1
572	0,1
572,5	0,099
572,9	0,099
573,4	0,099
573,8	0,099
574,3	0,098
574,7	0,098
575,2	0,098
575,6	0,098
576,1	0,098
576,5	0,098
576,9	0,097
577,4	0,097
577,8	0,097
578,3	0,097
578,7	0,097
579,2	0,096
579,6	0,095
580,1	0,095
580,5	0,095
581	0,095
581,4	0,094
581,9	0,094
582,3	0,094
582,7	0,094
583,2	0,093
583,6	0,093
584,1	0,093
584,5	0,092
585	0,092
585,4	0,092
585,9	0,091
586,3	0,091
586,8	0,09
587,2	0,09
587,6	0,09
588,1	0,09
588,5	0,089
589	0,089
589,4	0,09
589,9	0,089
590,3	0,089
590,8	0,089
591,2	0,088
591,7	0,089
592,1	0,088
592,5	0,088
593	0,088
593,4	0,088
593,9	0,087
594,3	0,087
594,8	0,087
595,2	0,086
595,7	0,086
596,1	0,085
596,6	0,085
597	0,085
597,4	0,085
597,9	0,085
598,3	0,085
598,8	0,084
599,2	0,084
599,7	0,084
600,1	0,083
600,6	0,082
601	0,081
601,4	0,081
601,9	0,081
602,3	0,081
602,8	0,081
603,2	0,081
603,7	0,081
604,1	0,081
604,6	0,081
605	0,081
605,4	0,081
605,9	0,081
606,3	0,08
606,8	0,08
607,2	0,079
607,7	0,079
608,1	0,079
608,6	0,078
609	0,078
609,4	0,078
609,9	0,078
610,3	0,077
610,8	0,077
611,2	0,076
611,7	0,076
612,1	0,076
612,6	0,075
613	0,075
613,4	0,075
613,9	0,075
614,3	0,076
614,8	0,075
615,2	0,075
615,7	0,074
616,1	0,074
616,6	0,074
617	0,073
617,4	0,072
617,9	0,072
618,3	0,072
618,8	0,072
619,2	0,071
619,7	0,071
620,1	0,071
620,5	0,071
621	0,071
621,4	0,07
621,9	0,07
622,3	0,07
622,8	0,07
623,2	0,069
623,6	0,069
624,1	0,069
624,5	0,069
625	0,069
625,4	0,068
625,9	0,068
626,3	0,069
626,8	0,068
627,2	0,068
627,6	0,068
628,1	0,068
628,5	0,068
629	0,067
629,4	0,066
629,9	0,066
630,3	0,066
630,7	0,065
631,2	0,065
631,6	0,064
632,1	0,064
632,5	0,064
633	0,063
633,4	0,063
633,8	0,063
634,3	0,063
634,7	0,062
635,2	0,062
635,6	0,062
636,1	0,062
636,5	0,062
636,9	0,062
637,4	0,062
637,8	0,062
638,3	0,061
638,7	0,061
639,2	0,061
639,6	0,061
640	0,061
640,5	0,061
640,9	0,061
641,4	0,06
641,8	0,06
642,2	0,059
642,7	0,059
643,1	0,058
643,6	0,057
644	0,057
644,5	0,057
644,9	0,057
645,3	0,057
645,8	0,056
646,2	0,056
646,7	0,057
647,1	0,056
647,6	0,057
648	0,057
648,4	0,056
648,9	0,056
649,3	0,056
649,8	0,055
650,2	0,055
650,6	0,055
651,1	0,054
651,5	0,054
652	0,054
652,4	0,054
652,9	0,054
653,3	0,054
653,7	0,054
654,2	0,053
654,6	0,052
655,1	0,051
655,5	0,034
655,9	0,038
656,4	0,038
656,8	0,038
657,3	0,038
657,7	0,036
658,2	0,032
658,6	0,053
659	0,052
659,5	0,051
659,9	0,051
660,4	0,051
660,8	0,05
661,2	0,05
661,7	0,05
662,1	0,05
662,6	0,05
663	0,049
663,4	0,049
663,9	0,049
664,3	0,049
664,8	0,048
665,2	0,048
665,6	0,048
666,1	0,048
666,5	0,048
667	0,048
667,4	0,049
667,9	0,049
668,3	0,048
668,7	0,048
669,2	0,047
669,6	0,047
670,1	0,047
670,5	0,046
670,9	0,046
671,4	0,046
671,8	0,045
672,3	0,045
672,7	0,045
673,1	0,045
673,6	0,045
674	0,045
674,5	0,045
674,9	0,045
675,3	0,045
675,8	0,044
676,2	0,044
676,7	0,044
677,1	0,044
677,5	0,043
678	0,043
678,4	0,044
678,9	0,044
679,3	0,044
679,7	0,044
680,2	0,043
680,6	0,042
681,1	0,042
681,5	0,041
681,9	0,041
682,4	0,041
682,8	0,04
683,3	0,04
683,7	0,04
684,1	0,04
684,6	0,04
685	0,04
685,5	0,04
685,9	0,04
686,3	0,041
686,8	0,04
687,2	0,04
687,7	0,04
688,1	0,04
688,5	0,04
689	0,04
689,4	0,04
689,9	0,04
690,3	0,04
690,7	0,04
691,2	0,04
691,6	0,04
692	0,04
692,5	0,039
692,9	0,039
693,4	0,039
693,8	0,039
694,2	0,038
694,7	0,038
695,1	0,038
695,6	0,037
696	0,038
696,4	0,037
696,9	0,037
697,3	0,037
697,8	0,037
698,2	0,037
698,6	0,036
699,1	0,036
699,5	0,036
699,9	0,036
700,4	0,036
700,8	0,036
701,3	0,036
701,7	0,036
702,1	0,036
702,6	0,035
703	0,035
703,5	0,035
703,9	0,035
704,3	0,034
704,8	0,034
705,2	0,034
705,6	0,034
706,1	0,034
706,5	0,034
707	0,033
707,4	0,034
707,8	0,034
708,3	0,034
708,7	0,034
709,2	0,034
709,6	0,034
710	0,033
710,5	0,033
710,9	0,033
711,3	0,033
711,8	0,033
712,2	0,032
712,7	0,032
713,1	0,032
713,5	0,032
714	0,032
714,4	0,032
714,8	0,032
715,3	0,032
715,7	0,032
716,2	0,031
716,6	0,031
717	0,031
717,5	0,031
717,9	0,031
718,3	0,031
718,8	0,031
719,2	0,031
719,7	0,031
720,1	0,031
720,5	0,031
721	0,031
721,4	0,031
721,8	0,03
722,3	0,03
722,7	0,03
723,2	0,03
723,6	0,029
724	0,029
724,5	0,029
724,9	0,029
725,3	0,029
725,8	0,029
726,2	0,029
726,7	0,029
727,1	0,029
727,5	0,028
728	0,028
728,4	0,029
728,8	0,029
729,3	0,029
729,7	0,029
730,1	0,028
730,6	0,029
731	0,029
731,5	0,028
731,9	0,028
732,3	0,028
732,8	0,028
733,2	0,028
733,6	0,028
734,1	0,028
734,5	0,028
734,9	0,028
735,4	0,028
735,8	0,028
736,3	0,028
736,7	0,028
737,1	0,028
737,6	0,027
738	0,027
738,4	0,027
738,9	0,026
739,3	0,027
739,7	0,026
740,2	0,026
740,6	0,026
741,1	0,026
741,5	0,027
741,9	0,026
742,4	0,026
742,8	0,026
743,2	0,026
743,7	0,026
744,1	0,026
744,5	0,026
745	0,026
745,4	0,026
745,8	0,026
746,3	0,025
746,7	0,025
747,2	0,025
747,6	0,024
748	0,024
748,5	0,024
748,9	0,024
749,3	0,024
749,8	0,024
750,2	0,024
750,6	0,025
751,1	0,025
751,5	0,025
751,9	0,025
752,4	0,025
752,8	0,024
753,3	0,024
753,7	0,024
754,1	0,024
754,6	0,024
755	0,024
755,4	0,024
755,9	0,024
756,3	0,023
756,7	0,023
757,2	0,023
757,6	0,023
758	0,023
758,5	0,023
758,9	0,023
759,3	0,023
759,8	0,024
760,2	0,023
760,6	0,024
761,1	0,024
761,5	0,023
761,9	0,023
762,4	0,023
762,8	0,023
763,3	0,023
763,7	0,022
764,1	0,022
764,6	0,022
765	0,022
765,4	0,022
765,9	0,021
766,3	0,021
766,7	0,022
767,2	0,022
767,6	0,022
768	0,022
768,5	0,022
768,9	0,022
769,3	0,022
769,8	0,022
770,2	0,021
770,6	0,021
771,1	0,021
771,5	0,02
771,9	0,02
772,4	0,02
772,8	0,02
773,2	0,02
773,7	0,02
774,1	0,02
774,5	0,02
775	0,02
775,4	0,021
775,8	0,021
776,3	0,021
776,7	0,021
777,1	0,021
777,6	0,021
778	0,021
778,4	0,021
778,9	0,021
779,3	0,02
779,7	0,021
780,2	0,021
780,6	0,021
781	0,021
781,5	0,021
781,9	0,021
782,3	0,021
782,8	0,021
783,2	0,021
783,6	0,021
784,1	0,02
784,5	0,02
784,9	0,02
785,4	0,02
785,8	0,02
786,2	0,02
786,7	0,02
787,1	0,02
787,5	0,02
788	0,02
788,4	0,02
788,8	0,02
789,3	0,019
789,7	0,019
790,1	0,019
790,6	0,019
791	0,019
791,4	0,019
791,9	0,019
792,3	0,019
792,7	0,019
793,2	0,019
793,6	0,019
794	0,019
794,5	0,02
794,9	0,02
795,3	0,02
795,8	0,02
796,2	0,02
796,6	0,02
797,1	0,019
797,5	0,019
797,9	0,019
798,4	0,019
798,8	0,019
799,2	0,019
799,7	0,019
800,1	0,019
800,5	0,019
801	0,019
801,4	0,019
801,8	0,019
802,2	0,019
802,7	0,019
803,1	0,019
803,5	0,019
804	0,019
804,4	0,019
804,8	0,018
805,3	0,018
805,7	0,018
806,1	0,018
806,6	0,018
807	0,018
807,4	0,018
807,9	0,018
808,3	0,018
808,7	0,018
809,2	0,018
809,6	0,018
810	0,018
810,4	0,018
810,9	0,018
811,3	0,018
811,7	0,017
812,2	0,017
812,6	0,017
813	0,017
813,5	0,017
813,9	0,018
814,3	0,018
814,8	0,018
815,2	0,019
815,6	0,019
816,1	0,019
816,5	0,018
816,9	0,019
817,3	0,019
817,8	0,018
818,2	0,018
818,6	0,018
819,1	0,018
819,5	0,018
819,9	0,017
820,4	0,018
820,8	0,018
821,2	0,018
821,7	0,018
822,1	0,018
822,5	0,018
822,9	0,019
823,4	0,019
823,8	0,018
824,2	0,018
824,7	0,017
825,1	0,017
825,5	0,017
826	0,017
826,4	0,017
826,8	0,017
827,3	0,018
827,7	0,018
828,1	0,018
828,5	0,018
829	0,018
829,4	0,018
829,8	0,018
830,3	0,018
830,7	0,017
831,1	0,017
831,6	0,017
832	0,017
832,4	0,017
832,8	0,017
833,3	0,017
833,7	0,018
834,1	0,017
834,6	0,018
835	0,018
835,4	0,018
835,8	0,019
836,3	0,019
836,7	0,019
837,1	0,019
837,6	0,018
838	0,018
838,4	0,018
838,9	0,018
839,3	0,018
839,7	0,017
840,1	0,017
840,6	0,017
841	0,016
841,4	0,016
841,9	0,016
842,3	0,016
842,7	0,016
843,1	0,016
843,6	0,016
844	0,017
844,4	0,017
844,9	0,017
845,3	0,017
845,7	0,017
846,2	0,017
846,6	0,017
847	0,016
847,4	0,017
847,9	0,017
848,3	0,017
848,7	0,017
849,2	0,017
849,6	0,017
850	0,017
850,4	0,017
850,9	0,017
851,3	0,017
851,7	0,017
852,2	0,017
852,6	0,016
853	0,016
853,4	0,016
853,9	0,016
854,3	0,016
854,7	0,016
855,2	0,015
855,6	0,016
856	0,016
856,4	0,016
856,9	0,016
857,3	0,016
857,7	0,016
858,2	0,016
858,6	0,015
859	0,015
859,4	0,015
859,9	0,015
860,3	0,016
860,7	0,016
861,1	0,016
861,6	0,016
862	0,016
862,4	0,016
862,9	0,016
863,3	0,017
863,7	0,017
864,1	0,017
864,6	0,016
865	0,016
865,4	0,015
865,9	0,015
866,3	0,015
866,7	0,014
867,1	0,014
867,6	0,015
868	0,015
868,4	0,015
868,8	0,015
869,3	0,015
869,7	0,015
870,1	0,015
870,6	0,015
871	0,015
871,4	0,015
871,8	0,016
872,3	0,016
872,7	0,016
873,1	0,016
873,5	0,016
874	0,016
874,4	0,015
874,8	0,015
875,3	0,015
875,7	0,015
876,1	0,015
876,5	0,015
877	0,015
877,4	0,015
877,8	0,014
878,2	0,014
878,7	0,015
879,1	0,014
879,5	0,014
879,9	0,014
880,4	0,014
880,8	0,014
881,2	0,014
881,7	0,014
882,1	0,014
882,5	0,015
882,9	0,015
883,4	0,015
883,8	0,015
884,2	0,015
884,6	0,016
885,1	0,016
885,5	0,015
885,9	0,015
886,3	0,015
886,8	0,015
887,2	0,015
887,6	0,015
888	0,014
888,5	0,015
888,9	0,015
889,3	0,015
889,8	0,015
890,2	0,014
890,6	0,014
891	0,015
891,5	0,014
891,9	0,014
892,3	0,015
892,7	0,015
893,2	0,015
893,6	0,015
894	0,015
894,4	0,015
894,9	0,016
895,3	0,015
895,7	0,015
896,1	0,014
896,6	0,015
897	0,014
897,4	0,014
897,8	0,014
898,3	0,013
898,7	0,013
899,1	0,013
899,5	0,013
900	0,013
900,4	0,013
900,8	0,013
901,2	0,013
901,7	0,014
902,1	0,014
902,5	0,014
902,9	0,014
903,4	0,014
903,8	0,014
904,2	0,014
904,6	0,014
905,1	0,014
905,5	0,014
905,9	0,014
906,3	0,014
906,8	0,015
907,2	0,015
907,6	0,015
908	0,015
908,5	0,015
908,9	0,015
909,3	0,014
909,7	0,014
910,2	0,014
910,6	0,014
911	0,014
911,4	0,014
911,9	0,014
912,3	0,014
912,7	0,014
913,1	0,014
913,6	0,014
914	0,014
914,4	0,014
914,8	0,014
915,3	0,014
915,7	0,014
916,1	0,014
916,5	0,014
916,9	0,014
917,4	0,013
917,8	0,014
918,2	0,014
918,6	0,014
919,1	0,014
919,5	0,014
919,9	0,014
920,3	0,014
920,8	0,013
921,2	0,013
921,6	0,013
922	0,014
922,5	0,014
922,9	0,015
923,3	0,014
923,7	0,015
924,2	0,015
924,6	0,015
925	0,015
925,4	0,014
925,8	0,014
926,3	0,015
926,7	0,015
927,1	0,015
927,5	0,015
928	0,015
928,4	0,015
928,8	0,015
929,2	0,015
929,7	0,015
930,1	0,016
930,5	0,016
930,9	0,016
931,3	0,016
931,8	0,016
932,2	0,016
932,6	0,015
933	0,015
933,5	0,015
933,9	0,015
934,3	0,015
934,7	0,015
935,2	0,016
935,6	0,016
936	0,016
936,4	0,016
936,8	0,016
937,3	0,016
937,7	0,016
938,1	0,015
938,5	0,015
939	0,015
939,4	0,016
939,8	0,015
940,2	0,015
940,6	0,015
941,1	0,015
941,5	0,015
941,9	0,014
942,3	0,014
942,8	0,014
943,2	0,016
943,6	0,016
944	0,016
944,4	0,016
944,9	0,017
945,3	0,017
945,7	0,017
946,1	0,017
946,6	0,018
947	0,018
947,4	0,018
947,8	0,018
948,2	0,018
948,7	0,018
949,1	0,018
949,5	0,018
949,9	0,017
950,3	0,018
950,8	0,017
951,2	0,018
951,6	0,018
952	0,018
952,5	0,018
952,9	0,019
953,3	0,018
953,7	0,019
954,1	0,019
954,6	0,019
955	0,019
955,4	0,02
955,8	0,021
956,2	0,021
956,7	0,021
957,1	0,02
957,5	0,021
957,9	0,02
958,3	0,02
958,8	0,02
959,2	0,02
959,6	0,021
960	0,021
960,5	0,021
960,9	0,021
961,3	0,021
961,7	0,02
962,1	0,021
962,6	0,021
963	0,021
963,4	0,021
963,8	0,021
964,2	0,021
964,7	0,021
965,1	0,02
965,5	0,021
965,9	0,021
966,3	0,02
966,8	0,02
967,2	0,02
967,6	0,02
968	0,02
968,4	0,02
968,9	0,019
969,3	0,019
969,7	0,019
970,1	0,018
970,5	0,018
971	0,018
971,4	0,018
971,8	0,018
972,2	0,018
972,6	0,018
973,1	0,019
973,5	0,019
973,9	0,019
974,3	0,019
974,7	0,019
975,2	0,018
975,6	0,018
976	0,017
976,4	0,017
976,8	0,017
977,3	0,017
977,7	0,017
978,1	0,018
978,5	0,019
978,9	0,019
979,4	0,018
979,8	0,018
980,2	0,018
980,6	0,018
981	0,018
981,5	0,018
981,9	0,017
982,3	0,017
982,7	0,016
983,1	0,017
983,6	0,017
984	0,017
984,4	0,016
984,8	0,016
985,2	0,016
985,6	0,016
986,1	0,016
986,5	0,016
986,9	0,016
987,3	0,016
987,7	0,016
988,2	0,016
988,6	0,016
989	0,016
989,4	0,016
989,8	0,015
990,3	0,016
990,7	0,015
991,1	0,015
991,5	0,015
991,9	0,014
992,3	0,015
992,8	0,015
993,2	0,014
993,6	0,014
994	0,014
994,4	0,014
994,9	0,015
995,3	0,014
995,7	0,014
996,1	0,015
996,5	0,014
996,9	0,014
997,4	0,014
997,8	0,014
998,2	0,015
998,6	0,014
999	0,014
999,5	0,014
999,9	0,015
1000,3	0,014
1000,7	0,014
1001,1	0,013
1001,5	0,013
1002	0,012
1002,4	0,011
1002,8	0,011
1003,2	0,011
1003,6	0,011
1004	0,011
1004,5	0,011
1004,9	0,011
1005,3	0,012
1005,7	0,012
1006,1	0,012
1006,6	0,012
1007	0,012
1007,4	0,012
1007,8	0,012
1008,2	0,012
1008,6	0,012
1009,1	0,011
1009,5	0,012
1009,9	0,012
1010,3	0,012
1010,7	0,011
1011,1	0,011
1011,6	0,011
1012	0,011
1012,4	0,011
1012,8	0,011
1013,2	0,011
1013,6	0,011
1014,1	0,011
1014,5	0,011
1014,9	0,011
1015,3	0,012
1015,7	0,012
1016,1	0,012
1016,6	0,011
1017	0,011
1017,4	0,01
1017,8	0,01
1018,2	0,01
1018,6	0,01
1019,1	0,01
1019,5	0,011
1019,9	0,01
1020,3	0,01
1020,7	0,01
1021,1	0,01
1021,6	0,01
1022	0,01
1022,4	0,01
1022,8	0,01
1023,2	0,01
1023,6	0,01
1024,1	0,01
1024,5	0,009
1024,9	0,009
1025,3	0,009
1025,7	0,009
1026,1	0,01
1026,6	0,009
1027	0,009
1027,4	0,009
1027,8	0,009
1028,2	0,009
1028,6	0,009
1029	0,008
1029,5	0,009
1029,9	0,009
1030,3	0,009
1030,7	0,009
1031,1	0,009
1031,5	0,009
1032	0,009
1032,4	0,008
1032,8	0,008
1033,2	0,009
1033,6	0,009
1034	0,009
1034,4	0,009
1034,9	0,009
1035,3	0,01
1035,7	0,01
1036,1	0,01
1036,5	0,009
1036,9	0,01
1037,4	0,01
1037,8	0,009
1038,2	0,01
1038,6	0,01
1039	0,009
1039,4	0,01
1039,8	0,01
1040,3	0,009
1040,7	0,008
1041,1	0,007
1041,5	0,007
1041,9	0,007
1042,3	0,007
1042,7	0,006
1043,2	0,008
1043,6	0,009
1044	0,009
1044,4	0,009
1044,8	0,009
1045,2	0,01
1045,6	0,01
1046,1	0,009
1046,5	0,009
1046,9	0,01
1047,3	0,01
1047,7	0,009
1048,1	0,008
1048,5	0,007
1049	0,008
1049,4	0,008
1049,8	0,007
1050,2	0,007
1050,6	0,008
1051	0,008
1051,4	0,008
1051,9	0,007
1052,3	0,008
1052,7	0,008
1053,1	0,009
1053,5	0,008
1053,9	0,009
1054,3	0,009
1054,8	0,01
1055,2	0,01
1055,6	0,009
1056	0,01
1056,4	0,01
1056,8	0,009
1057,2	0,009
1057,6	0,009
1058,1	0,009
1058,5	0,009
1058,9	0,009
1059,3	0,009
1059,7	0,008
1060,1	0,008
1060,5	0,008
1061	0,008
1061,4	0,009
1061,8	0,008
1062,2	0,009
1062,6	0,009
1063	0,009
1063,4	0,009
1063,8	0,01
1064,3	0,01
1064,7	0,01
1065,1	0,011
1065,5	0,011
1065,9	0,012
1066,3	0,013
1066,7	0,013
1067,1	0,014
1067,6	0,014
1068	0,013
1068,4	0,013
1068,8	0,012
1069,2	0,012
1069,6	0,012
1070	0,012
1070,4	0,011
1070,9	0,01
1071,3	0,01
1071,7	0,011
1072,1	0,01
1072,5	0,01
1072,9	0,009
1073,3	0,009
1073,7	0,011
1074,2	0,01
1074,6	0,01
1075	0,01
1075,4	0,01
1075,8	0,009
1076,2	0,01
1076,6	0,007
1077	0,007
1077,5	0,007
1077,9	0,008
1078,3	0,008
1078,7	0,01
1079,1	0,01
1079,5	0,011
1079,9	0,012
1080,3	0,012
1080,7	0,013
1081,2	0,011
1081,6	0,011
1082	0,011
1082,4	0,012
1082,8	0,012
1083,2	0,011
1083,6	0,01
1084	0,012
1084,5	0,011
1084,9	0,011
1085,3	0,014
1085,7	0,013
1086,1	0,012
1086,5	0,013
1086,9	0,011
1087,3	0,009
1087,7	0,005
1088,2	-0
1088,6	0,002
1089	0,005
1089,4	0,005
1089,8	0,009
1090,2	0,013
1090,6	0,017
1091	0,02
1091,4	0,017
1091,9	0,016
1092,3	0,018
1092,7	0,018
1093,1	0,013
1093,5	0,012
1093,9	0,015
1094,3	0,017
1094,7	0,017
1095,1	0,017
1095,5	0,017
1096	0,023
1096,4	0,023
1096,8	0,022
1097,2	0,01
1097,6	0,008
1098	0,006
1098,4	0,007
1098,8	0
1099,2	0,008
1099,6	0,005
1100,1	0,002
1100,5	-0,005
1100,9	-0,003
1101,3	-0,005
1101,7	0,001
1102,1	0,003
1102,5	0,006
1102,9	0,02
1103,3	0,04
1103,7	0,048
1104,2	0,037
1104,6	0,044
1105	0,042
1105,4	0,05
1105,8	0,072
1106,2	0,079
1106,6	0,07
1107	0,14
1107,4	0,18
1107,8	0,315
1108,3	-0
