Data from Absorbance_18-38-47-080.txt Node
Date: Tue Nov 15 18:38:47 MSK 2022
User: vat
Spectrometer: MAYP114033
Trigger mode: 0
Integration Time (sec): 8,000000E-3
Scans to average: 10
Electric dark correction enabled: true
Nonlinearity correction enabled: false
Boxcar width: 3
XAxis mode: Wavelengths
Number of Pixels in Spectrum: 2068
>>>>>Begin Spectral Data<<<<<
199,4	-0
199,9	0,342
200,4	0,059
200,8	0,033
201,3	0,065
201,8	0,022
202,2	0,044
202,7	0,029
203,2	0,029
203,6	0,038
204,1	0,021
204,6	0,02
205	0,03
205,5	-0,006
206	-0,016
206,4	-0,029
206,9	-0,014
207,4	-0,007
207,8	-0,024
208,3	-0,033
208,8	-0,01
209,2	0,005
209,7	0,013
210,2	0,006
210,6	0,02
211,1	0,052
211,5	0,057
212	0,035
212,5	0,041
212,9	0,025
213,4	-0,008
213,9	-0,026
214,3	-0,061
214,8	-0,073
215,3	-0,058
215,7	-0,053
216,2	-0,061
216,7	-0,058
217,1	-0,037
217,6	-0,027
218,1	-0,026
218,5	0,005
219	-0,009
219,5	-0,011
219,9	0,017
220,4	-0,008
220,9	0,004
221,3	0,016
221,8	0,008
222,3	0,011
222,7	0,03
223,2	0,018
223,6	0,043
224,1	0,055
224,6	0,055
225	0,034
225,5	0,03
226	0,023
226,4	0,02
226,9	0,017
227,4	-0,007
227,8	-0,024
228,3	-0,007
228,8	-0,007
229,2	0,005
229,7	0,014
230,2	0,001
230,6	0,001
231,1	0,002
231,5	0,008
232	0,003
232,5	0,016
232,9	0,017
233,4	0,042
233,9	0,033
234,3	0,029
234,8	0,022
235,3	0,036
235,7	0,028
236,2	0,037
236,7	0,03
237,1	0,041
237,6	0,038
238,1	0,043
238,5	0,046
239	0,037
239,4	0,009
239,9	0,009
240,4	0,04
240,8	0,044
241,3	0,013
241,8	0,013
242,2	0,031
242,7	0,033
243,2	0,017
243,6	-0,025
244,1	-0,026
244,6	-0,005
245	-0,016
245,5	-0,042
245,9	-0,013
246,4	-0,002
246,9	0,005
247,3	0,009
247,8	0,017
248,3	0,023
248,7	0,036
249,2	0,033
249,7	0,039
250,1	0,044
250,6	0,051
251	0,067
251,5	0,088
252	0,092
252,4	0,091
252,9	0,099
253,4	0,102
253,8	0,101
254,3	0,103
254,8	0,099
255,2	0,103
255,7	0,105
256,1	0,102
256,6	0,1
257,1	0,1
257,5	0,099
258	0,095
258,5	0,092
258,9	0,091
259,4	0,091
259,9	0,089
260,3	0,09
260,8	0,087
261,2	0,087
261,7	0,085
262,2	0,084
262,6	0,085
263,1	0,086
263,6	0,083
264	0,082
264,5	0,081
264,9	0,082
265,4	0,081
265,9	0,079
266,3	0,077
266,8	0,077
267,3	0,077
267,7	0,076
268,2	0,075
268,7	0,074
269,1	0,073
269,6	0,073
270	0,072
270,5	0,071
271	0,071
271,4	0,071
271,9	0,07
272,4	0,071
272,8	0,072
273,3	0,072
273,7	0,071
274,2	0,071
274,7	0,071
275,1	0,072
275,6	0,071
276,1	0,07
276,5	0,07
277	0,07
277,4	0,069
277,9	0,069
278,4	0,069
278,8	0,069
279,3	0,069
279,8	0,069
280,2	0,068
280,7	0,07
281,1	0,069
281,6	0,067
282,1	0,067
282,5	0,066
283	0,065
283,4	0,064
283,9	0,063
284,4	0,063
284,8	0,063
285,3	0,061
285,8	0,062
286,2	0,061
286,7	0,061
287,1	0,061
287,6	0,06
288,1	0,06
288,5	0,059
289	0,059
289,5	0,059
289,9	0,058
290,4	0,057
290,8	0,056
291,3	0,056
291,8	0,055
292,2	0,055
292,7	0,055
293,1	0,054
293,6	0,053
294,1	0,053
294,5	0,054
295	0,054
295,5	0,053
295,9	0,053
296,4	0,053
296,8	0,054
297,3	0,054
297,8	0,055
298,2	0,055
298,7	0,056
299,1	0,056
299,6	0,057
300,1	0,057
300,5	0,057
301	0,056
301,5	0,056
301,9	0,057
302,4	0,056
302,8	0,056
303,3	0,056
303,8	0,057
304,2	0,058
304,7	0,058
305,1	0,058
305,6	0,058
306,1	0,059
306,5	0,059
307	0,059
307,4	0,059
307,9	0,059
308,4	0,06
308,8	0,06
309,3	0,061
309,8	0,061
310,2	0,062
310,7	0,062
311,1	0,062
311,6	0,062
312,1	0,063
312,5	0,063
313	0,064
313,4	0,064
313,9	0,064
314,4	0,064
314,8	0,065
315,3	0,066
315,7	0,066
316,2	0,066
316,7	0,067
317,1	0,067
317,6	0,069
318	0,069
318,5	0,069
319	0,07
319,4	0,07
319,9	0,07
320,3	0,071
320,8	0,07
321,3	0,07
321,7	0,071
322,2	0,072
322,6	0,073
323,1	0,075
323,6	0,075
324	0,076
324,5	0,077
324,9	0,078
325,4	0,078
325,9	0,077
326,3	0,077
326,8	0,077
327,2	0,077
327,7	0,077
328,2	0,076
328,6	0,078
329,1	0,078
329,5	0,078
330	0,079
330,5	0,079
330,9	0,08
331,4	0,081
331,8	0,08
332,3	0,081
332,8	0,081
333,2	0,081
333,7	0,081
334,1	0,081
334,6	0,081
335,1	0,08
335,5	0,081
336	0,081
336,4	0,082
336,9	0,083
337,4	0,083
337,8	0,083
338,3	0,083
338,7	0,082
339,2	0,082
339,7	0,081
340,1	0,081
340,6	0,081
341	0,081
341,5	0,081
342	0,081
342,4	0,081
342,9	0,081
343,3	0,081
343,8	0,081
344,2	0,081
344,7	0,08
345,2	0,08
345,6	0,08
346,1	0,08
346,5	0,078
347	0,078
347,5	0,077
347,9	0,077
348,4	0,077
348,8	0,076
349,3	0,076
349,8	0,075
350,2	0,074
350,7	0,074
351,1	0,073
351,6	0,071
352	0,071
352,5	0,07
353	0,07
353,4	0,07
353,9	0,069
354,3	0,069
354,8	0,068
355,3	0,068
355,7	0,067
356,2	0,065
356,6	0,066
357,1	0,065
357,5	0,065
358	0,064
358,5	0,063
358,9	0,063
359,4	0,062
359,8	0,061
360,3	0,061
360,8	0,06
361,2	0,059
361,7	0,059
362,1	0,058
362,6	0,058
363	0,057
363,5	0,057
364	0,056
364,4	0,056
364,9	0,055
365,3	0,053
365,8	0,053
366,3	0,052
366,7	0,051
367,2	0,051
367,6	0,05
368,1	0,05
368,5	0,05
369	0,049
369,5	0,049
369,9	0,049
370,4	0,048
370,8	0,048
371,3	0,047
371,7	0,047
372,2	0,046
372,7	0,046
373,1	0,045
373,6	0,044
374	0,043
374,5	0,043
374,9	0,042
375,4	0,043
375,9	0,042
376,3	0,043
376,8	0,042
377,2	0,042
377,7	0,042
378,2	0,042
378,6	0,042
379,1	0,042
379,5	0,041
380	0,04
380,4	0,041
380,9	0,041
381,4	0,04
381,8	0,039
382,3	0,039
382,7	0,039
383,2	0,04
383,6	0,039
384,1	0,039
384,6	0,038
385	0,038
385,5	0,038
385,9	0,038
386,4	0,038
386,8	0,037
387,3	0,037
387,7	0,037
388,2	0,037
388,7	0,038
389,1	0,038
389,6	0,037
390	0,038
390,5	0,038
390,9	0,038
391,4	0,038
391,9	0,037
392,3	0,037
392,8	0,036
393,2	0,036
393,7	0,036
394,1	0,035
394,6	0,035
395,1	0,036
395,5	0,036
396	0,037
396,4	0,036
396,9	0,036
397,3	0,037
397,8	0,037
398,2	0,037
398,7	0,036
399,2	0,036
399,6	0,037
400,1	0,038
400,5	0,038
401	0,038
401,4	0,039
401,9	0,04
402,4	0,039
402,8	0,038
403,3	0,038
403,7	0,037
404,2	0,038
404,6	0,037
405,1	0,037
405,5	0,037
406	0,038
406,5	0,039
406,9	0,039
407,4	0,039
407,8	0,039
408,3	0,039
408,7	0,039
409,2	0,038
409,6	0,039
410,1	0,039
410,6	0,039
411	0,039
411,5	0,039
411,9	0,039
412,4	0,038
412,8	0,038
413,3	0,039
413,7	0,039
414,2	0,039
414,7	0,039
415,1	0,039
415,6	0,04
416	0,04
416,5	0,039
416,9	0,04
417,4	0,04
417,8	0,04
418,3	0,04
418,8	0,041
419,2	0,041
419,7	0,041
420,1	0,042
420,6	0,042
421	0,042
421,5	0,042
421,9	0,042
422,4	0,041
422,8	0,042
423,3	0,042
423,8	0,042
424,2	0,043
424,7	0,043
425,1	0,043
425,6	0,043
426	0,043
426,5	0,043
426,9	0,043
427,4	0,043
427,9	0,043
428,3	0,043
428,8	0,042
429,2	0,042
429,7	0,042
430,1	0,041
430,6	0,042
431	0,042
431,5	0,043
431,9	0,042
432,4	0,043
432,8	0,043
433,3	0,043
433,8	0,042
434,2	0,043
434,7	0,043
435,1	0,043
435,6	0,043
436	0,043
436,5	0,043
436,9	0,044
437,4	0,044
437,8	0,044
438,3	0,045
438,8	0,045
439,2	0,045
439,7	0,045
440,1	0,045
440,6	0,045
441	0,044
441,5	0,044
441,9	0,045
442,4	0,045
442,8	0,045
443,3	0,045
443,7	0,045
444,2	0,045
444,7	0,045
445,1	0,045
445,6	0,045
446	0,045
446,5	0,045
446,9	0,045
447,4	0,044
447,8	0,045
448,3	0,044
448,7	0,044
449,2	0,044
449,6	0,044
450,1	0,044
450,6	0,044
451	0,044
451,5	0,045
451,9	0,045
452,4	0,046
452,8	0,045
453,3	0,046
453,7	0,046
454,2	0,046
454,6	0,045
455,1	0,045
455,5	0,044
456	0,044
456,4	0,044
456,9	0,043
457,3	0,043
457,8	0,043
458,3	0,043
458,7	0,043
459,2	0,044
459,6	0,043
460,1	0,043
460,5	0,044
461	0,044
461,4	0,044
461,9	0,044
462,3	0,044
462,8	0,044
463,2	0,043
463,7	0,043
464,1	0,043
464,6	0,043
465	0,043
465,5	0,043
466	0,042
466,4	0,042
466,9	0,042
467,3	0,042
467,8	0,042
468,2	0,041
468,7	0,04
469,1	0,041
469,6	0,042
470	0,041
470,5	0,041
470,9	0,041
471,4	0,042
471,8	0,042
472,3	0,041
472,7	0,041
473,2	0,04
473,6	0,04
474,1	0,04
474,5	0,04
475	0,04
475,4	0,04
475,9	0,04
476,4	0,041
476,8	0,041
477,3	0,04
477,7	0,039
478,2	0,038
478,6	0,038
479,1	0,038
479,5	0,037
480	0,037
480,4	0,037
480,9	0,037
481,3	0,037
481,8	0,036
482,2	0,036
482,7	0,036
483,1	0,035
483,6	0,035
484	0,034
484,5	0,034
484,9	0,034
485,4	0,034
485,8	0,034
486,3	0,034
486,7	0,034
487,2	0,034
487,6	0,034
488,1	0,034
488,5	0,034
489	0,033
489,4	0,033
489,9	0,032
490,4	0,032
490,8	0,031
491,3	0,031
491,7	0,03
492,2	0,029
492,6	0,028
493,1	0,028
493,5	0,028
494	0,028
494,4	0,028
494,9	0,028
495,3	0,028
495,8	0,028
496,2	0,027
496,7	0,027
497,1	0,027
497,6	0,026
498	0,026
498,5	0,026
498,9	0,026
499,4	0,026
499,8	0,025
500,3	0,025
500,7	0,025
501,2	0,024
501,6	0,024
502,1	0,023
502,5	0,023
503	0,023
503,4	0,023
503,9	0,022
504,3	0,022
504,8	0,021
505,2	0,021
505,7	0,021
506,1	0,02
506,6	0,02
507	0,02
507,5	0,02
507,9	0,02
508,4	0,02
508,8	0,019
509,3	0,019
509,7	0,019
510,2	0,019
510,6	0,018
511,1	0,018
511,5	0,017
512	0,017
512,4	0,017
512,9	0,016
513,3	0,017
513,8	0,016
514,2	0,016
514,7	0,016
515,1	0,016
515,6	0,017
516	0,017
516,5	0,017
516,9	0,018
517,4	0,018
517,8	0,018
518,3	0,018
518,7	0,016
519,2	0,016
519,6	0,016
520,1	0,015
520,5	0,015
521	0,015
521,4	0,015
521,9	0,014
522,3	0,014
522,8	0,014
523,2	0,013
523,7	0,012
524,1	0,013
524,6	0,012
525	0,013
525,5	0,012
525,9	0,012
526,4	0,013
526,8	0,013
527,3	0,013
527,7	0,013
528,2	0,014
528,6	0,014
529,1	0,014
529,5	0,014
530	0,013
530,4	0,013
530,9	0,013
531,3	0,012
531,8	0,012
532,2	0,012
532,6	0,011
533,1	0,012
533,5	0,012
534	0,011
534,4	0,011
534,9	0,011
535,3	0,011
535,8	0,011
536,2	0,01
536,7	0,011
537,1	0,011
537,6	0,011
538	0,011
538,5	0,011
538,9	0,011
539,4	0,011
539,8	0,012
540,3	0,011
540,7	0,011
541,2	0,01
541,6	0,01
542,1	0,01
542,5	0,009
543	0,009
543,4	0,01
543,9	0,009
544,3	0,01
544,8	0,011
545,2	0,011
545,7	0,011
546,1	0,011
546,5	0,011
547	0,011
547,4	0,011
547,9	0,011
548,3	0,011
548,8	0,012
549,2	0,012
549,7	0,011
550,1	0,011
550,6	0,01
551	0,011
551,5	0,011
551,9	0,011
552,4	0,011
552,8	0,011
553,3	0,011
553,7	0,011
554,2	0,01
554,6	0,01
555,1	0,01
555,5	0,01
555,9	0,01
556,4	0,01
556,8	0,011
557,3	0,011
557,7	0,011
558,2	0,011
558,6	0,011
559,1	0,011
559,5	0,011
560	0,011
560,4	0,011
560,9	0,01
561,3	0,01
561,8	0,009
562,2	0,01
562,7	0,009
563,1	0,009
563,6	0,009
564	0,009
564,4	0,009
564,9	0,009
565,3	0,009
565,8	0,01
566,2	0,01
566,7	0,01
567,1	0,01
567,6	0,01
568	0,01
568,5	0,01
568,9	0,01
569,4	0,01
569,8	0,01
570,3	0,009
570,7	0,009
571,1	0,009
571,6	0,009
572	0,009
572,5	0,009
572,9	0,009
573,4	0,01
573,8	0,01
574,3	0,01
574,7	0,01
575,2	0,01
575,6	0,01
576,1	0,01
576,5	0,01
576,9	0,01
577,4	0,01
577,8	0,01
578,3	0,01
578,7	0,01
579,2	0,01
579,6	0,01
580,1	0,01
580,5	0,01
581	0,01
581,4	0,01
581,9	0,01
582,3	0,01
582,7	0,009
583,2	0,009
583,6	0,009
584,1	0,009
584,5	0,009
585	0,009
585,4	0,009
585,9	0,01
586,3	0,01
586,8	0,01
587,2	0,01
587,6	0,01
588,1	0,01
588,5	0,01
589	0,009
589,4	0,009
589,9	0,009
590,3	0,009
590,8	0,009
591,2	0,009
591,7	0,009
592,1	0,009
592,5	0,009
593	0,009
593,4	0,01
593,9	0,01
594,3	0,009
594,8	0,009
595,2	0,009
595,7	0,009
596,1	0,009
596,6	0,009
597	0,009
597,4	0,009
597,9	0,008
598,3	0,009
598,8	0,009
599,2	0,009
599,7	0,009
600,1	0,009
600,6	0,01
601	0,01
601,4	0,01
601,9	0,009
602,3	0,009
602,8	0,009
603,2	0,009
603,7	0,009
604,1	0,009
604,6	0,008
605	0,008
605,4	0,008
605,9	0,008
606,3	0,008
606,8	0,008
607,2	0,008
607,7	0,008
608,1	0,008
608,6	0,008
609	0,008
609,4	0,008
609,9	0,008
610,3	0,008
610,8	0,008
611,2	0,008
611,7	0,008
612,1	0,008
612,6	0,008
613	0,008
613,4	0,008
613,9	0,007
614,3	0,008
614,8	0,008
615,2	0,008
615,7	0,008
616,1	0,008
616,6	0,009
617	0,009
617,4	0,008
617,9	0,008
618,3	0,008
618,8	0,008
619,2	0,007
619,7	0,007
620,1	0,007
620,5	0,007
621	0,007
621,4	0,007
621,9	0,007
622,3	0,007
622,8	0,007
623,2	0,008
623,6	0,008
624,1	0,008
624,5	0,008
625	0,008
625,4	0,007
625,9	0,008
626,3	0,008
626,8	0,008
627,2	0,008
627,6	0,007
628,1	0,007
628,5	0,007
629	0,007
629,4	0,007
629,9	0,007
630,3	0,007
630,7	0,007
631,2	0,006
631,6	0,007
632,1	0,007
632,5	0,007
633	0,007
633,4	0,006
633,8	0,007
634,3	0,007
634,7	0,006
635,2	0,007
635,6	0,006
636,1	0,006
636,5	0,006
636,9	0,006
637,4	0,006
637,8	0,006
638,3	0,006
638,7	0,007
639,2	0,007
639,6	0,007
640	0,007
640,5	0,006
640,9	0,007
641,4	0,006
641,8	0,006
642,2	0,006
642,7	0,006
643,1	0,006
643,6	0,007
644	0,007
644,5	0,007
644,9	0,006
645,3	0,006
645,8	0,006
646,2	0,006
646,7	0,006
647,1	0,005
647,6	0,005
648	0,005
648,4	0,006
648,9	0,006
649,3	0,006
649,8	0,006
650,2	0,007
650,6	0,007
651,1	0,007
651,5	0,007
652	0,007
652,4	0,006
652,9	0,006
653,3	0,006
653,7	0,006
654,2	0,006
654,6	0,006
655,1	0,005
655,5	0,004
655,9	0,004
656,4	0,005
656,8	0,005
657,3	0,005
657,7	0,005
658,2	0,004
658,6	0,007
659	0,006
659,5	0,006
659,9	0,006
660,4	0,006
660,8	0,006
661,2	0,007
661,7	0,007
662,1	0,007
662,6	0,006
663	0,006
663,4	0,006
663,9	0,006
664,3	0,006
664,8	0,006
665,2	0,006
665,6	0,006
666,1	0,006
666,5	0,006
667	0,006
667,4	0,005
667,9	0,005
668,3	0,005
668,7	0,005
669,2	0,005
669,6	0,006
670,1	0,006
670,5	0,006
670,9	0,006
671,4	0,006
671,8	0,006
672,3	0,006
672,7	0,006
673,1	0,006
673,6	0,006
674	0,006
674,5	0,006
674,9	0,006
675,3	0,006
675,8	0,006
676,2	0,006
676,7	0,006
677,1	0,006
677,5	0,006
678	0,006
678,4	0,006
678,9	0,006
679,3	0,006
679,7	0,006
680,2	0,007
680,6	0,007
681,1	0,006
681,5	0,006
681,9	0,006
682,4	0,005
682,8	0,005
683,3	0,005
683,7	0,005
684,1	0,005
684,6	0,006
685	0,006
685,5	0,006
685,9	0,006
686,3	0,006
686,8	0,006
687,2	0,006
687,7	0,006
688,1	0,006
688,5	0,006
689	0,007
689,4	0,007
689,9	0,006
690,3	0,007
690,7	0,007
691,2	0,006
691,6	0,007
692	0,006
692,5	0,006
692,9	0,006
693,4	0,006
693,8	0,006
694,2	0,006
694,7	0,006
695,1	0,006
695,6	0,006
696	0,006
696,4	0,006
696,9	0,007
697,3	0,007
697,8	0,007
698,2	0,007
698,6	0,007
699,1	0,007
699,5	0,007
699,9	0,007
700,4	0,007
700,8	0,007
701,3	0,007
701,7	0,007
702,1	0,006
702,6	0,006
703	0,006
703,5	0,006
703,9	0,006
704,3	0,006
704,8	0,006
705,2	0,006
705,6	0,006
706,1	0,006
706,5	0,006
707	0,006
707,4	0,006
707,8	0,006
708,3	0,006
708,7	0,006
709,2	0,006
709,6	0,007
710	0,006
710,5	0,006
710,9	0,006
711,3	0,005
711,8	0,006
712,2	0,006
712,7	0,006
713,1	0,006
713,5	0,006
714	0,006
714,4	0,006
714,8	0,006
715,3	0,006
715,7	0,006
716,2	0,006
716,6	0,006
717	0,006
717,5	0,006
717,9	0,006
718,3	0,006
718,8	0,006
719,2	0,006
719,7	0,006
720,1	0,006
720,5	0,006
721	0,006
721,4	0,006
721,8	0,006
722,3	0,006
722,7	0,006
723,2	0,006
723,6	0,006
724	0,006
724,5	0,006
724,9	0,006
725,3	0,006
725,8	0,006
726,2	0,006
726,7	0,006
727,1	0,006
727,5	0,006
728	0,006
728,4	0,006
728,8	0,006
729,3	0,006
729,7	0,006
730,1	0,006
730,6	0,006
731	0,006
731,5	0,005
731,9	0,005
732,3	0,006
732,8	0,006
733,2	0,006
733,6	0,006
734,1	0,007
734,5	0,007
734,9	0,007
735,4	0,007
735,8	0,006
736,3	0,006
736,7	0,006
737,1	0,006
737,6	0,006
738	0,006
738,4	0,006
738,9	0,006
739,3	0,005
739,7	0,005
740,2	0,006
740,6	0,006
741,1	0,006
741,5	0,006
741,9	0,006
742,4	0,006
742,8	0,006
743,2	0,006
743,7	0,006
744,1	0,006
744,5	0,006
745	0,006
745,4	0,006
745,8	0,006
746,3	0,006
746,7	0,007
747,2	0,007
747,6	0,007
748	0,007
748,5	0,007
748,9	0,007
749,3	0,007
749,8	0,007
750,2	0,007
750,6	0,007
751,1	0,007
751,5	0,007
751,9	0,006
752,4	0,006
752,8	0,006
753,3	0,006
753,7	0,005
754,1	0,006
754,6	0,006
755	0,006
755,4	0,006
755,9	0,006
756,3	0,006
756,7	0,006
757,2	0,006
757,6	0,006
758	0,006
758,5	0,005
758,9	0,005
759,3	0,005
759,8	0,005
760,2	0,005
760,6	0,005
761,1	0,006
761,5	0,006
761,9	0,006
762,4	0,006
762,8	0,006
763,3	0,005
763,7	0,005
764,1	0,005
764,6	0,005
765	0,005
765,4	0,005
765,9	0,005
766,3	0,005
766,7	0,006
767,2	0,005
767,6	0,005
768	0,005
768,5	0,005
768,9	0,005
769,3	0,005
769,8	0,005
770,2	0,005
770,6	0,006
771,1	0,005
771,5	0,005
771,9	0,005
772,4	0,005
772,8	0,006
773,2	0,005
773,7	0,005
774,1	0,006
774,5	0,006
775	0,007
775,4	0,007
775,8	0,006
776,3	0,007
776,7	0,006
777,1	0,006
777,6	0,006
778	0,006
778,4	0,006
778,9	0,006
779,3	0,006
779,7	0,006
780,2	0,005
780,6	0,005
781	0,005
781,5	0,005
781,9	0,005
782,3	0,005
782,8	0,005
783,2	0,006
783,6	0,006
784,1	0,006
784,5	0,006
784,9	0,005
785,4	0,005
785,8	0,005
786,2	0,006
786,7	0,006
787,1	0,006
787,5	0,005
788	0,006
788,4	0,005
788,8	0,005
789,3	0,005
789,7	0,005
790,1	0,005
790,6	0,005
791	0,005
791,4	0,005
791,9	0,006
792,3	0,005
792,7	0,005
793,2	0,006
793,6	0,006
794	0,006
794,5	0,006
794,9	0,006
795,3	0,005
795,8	0,006
796,2	0,005
796,6	0,005
797,1	0,005
797,5	0,005
797,9	0,005
798,4	0,005
798,8	0,005
799,2	0,005
799,7	0,006
800,1	0,006
800,5	0,006
801	0,006
801,4	0,006
801,8	0,006
802,2	0,005
802,7	0,005
803,1	0,005
803,5	0,005
804	0,005
804,4	0,005
804,8	0,005
805,3	0,005
805,7	0,006
806,1	0,006
806,6	0,006
807	0,006
807,4	0,006
807,9	0,006
808,3	0,006
808,7	0,006
809,2	0,006
809,6	0,006
810	0,006
810,4	0,006
810,9	0,006
811,3	0,006
811,7	0,006
812,2	0,006
812,6	0,006
813	0,006
813,5	0,006
813,9	0,006
814,3	0,005
814,8	0,005
815,2	0,005
815,6	0,005
816,1	0,005
816,5	0,005
816,9	0,005
817,3	0,005
817,8	0,006
818,2	0,006
818,6	0,006
819,1	0,006
819,5	0,006
819,9	0,005
820,4	0,005
820,8	0,005
821,2	0,005
821,7	0,005
822,1	0,005
822,5	0,005
822,9	0,005
823,4	0,005
823,8	0,005
824,2	0,005
824,7	0,005
825,1	0,005
825,5	0,005
826	0,005
826,4	0,005
826,8	0,005
827,3	0,005
827,7	0,006
828,1	0,006
828,5	0,006
829	0,006
829,4	0,006
829,8	0,006
830,3	0,006
830,7	0,006
831,1	0,006
831,6	0,006
832	0,006
832,4	0,006
832,8	0,006
833,3	0,006
833,7	0,006
834,1	0,006
834,6	0,006
835	0,006
835,4	0,006
835,8	0,006
836,3	0,006
836,7	0,006
837,1	0,006
837,6	0,007
838	0,006
838,4	0,007
838,9	0,006
839,3	0,006
839,7	0,006
840,1	0,006
840,6	0,005
841	0,005
841,4	0,005
841,9	0,006
842,3	0,006
842,7	0,006
843,1	0,006
843,6	0,006
844	0,007
844,4	0,007
844,9	0,006
845,3	0,006
845,7	0,006
846,2	0,005
846,6	0,005
847	0,006
847,4	0,006
847,9	0,006
848,3	0,006
848,7	0,006
849,2	0,006
849,6	0,006
850	0,006
850,4	0,006
850,9	0,006
851,3	0,006
851,7	0,006
852,2	0,005
852,6	0,006
853	0,006
853,4	0,006
853,9	0,006
854,3	0,006
854,7	0,006
855,2	0,006
855,6	0,006
856	0,006
856,4	0,006
856,9	0,006
857,3	0,005
857,7	0,005
858,2	0,006
858,6	0,005
859	0,005
859,4	0,005
859,9	0,005
860,3	0,005
860,7	0,006
861,1	0,006
861,6	0,006
862	0,006
862,4	0,006
862,9	0,006
863,3	0,006
863,7	0,006
864,1	0,005
864,6	0,006
865	0,005
865,4	0,005
865,9	0,004
866,3	0,005
866,7	0,005
867,1	0,005
867,6	0,005
868	0,005
868,4	0,005
868,8	0,005
869,3	0,005
869,7	0,005
870,1	0,005
870,6	0,005
871	0,005
871,4	0,005
871,8	0,005
872,3	0,005
872,7	0,005
873,1	0,005
873,5	0,005
874	0,005
874,4	0,005
874,8	0,005
875,3	0,005
875,7	0,005
876,1	0,005
876,5	0,005
877	0,005
877,4	0,005
877,8	0,005
878,2	0,005
878,7	0,005
879,1	0,005
879,5	0,005
879,9	0,005
880,4	0,005
880,8	0,006
881,2	0,006
881,7	0,006
882,1	0,005
882,5	0,005
882,9	0,005
883,4	0,005
883,8	0,005
884,2	0,005
884,6	0,005
885,1	0,006
885,5	0,006
885,9	0,005
886,3	0,005
886,8	0,005
887,2	0,005
887,6	0,005
888	0,005
888,5	0,005
888,9	0,006
889,3	0,005
889,8	0,006
890,2	0,006
890,6	0,005
891	0,005
891,5	0,005
891,9	0,005
892,3	0,005
892,7	0,004
893,2	0,004
893,6	0,005
894	0,005
894,4	0,005
894,9	0,004
895,3	0,004
895,7	0,004
896,1	0,004
896,6	0,005
897	0,005
897,4	0,006
897,8	0,006
898,3	0,006
898,7	0,006
899,1	0,006
899,5	0,006
900	0,005
900,4	0,005
900,8	0,005
901,2	0,005
901,7	0,005
902,1	0,005
902,5	0,004
902,9	0,004
903,4	0,004
903,8	0,004
904,2	0,004
904,6	0,005
905,1	0,005
905,5	0,005
905,9	0,005
906,3	0,005
906,8	0,005
907,2	0,005
907,6	0,005
908	0,005
908,5	0,005
908,9	0,005
909,3	0,006
909,7	0,006
910,2	0,005
910,6	0,005
911	0,006
911,4	0,006
911,9	0,006
912,3	0,006
912,7	0,006
913,1	0,007
913,6	0,007
914	0,007
914,4	0,006
914,8	0,006
915,3	0,006
915,7	0,006
916,1	0,005
916,5	0,005
916,9	0,005
917,4	0,005
917,8	0,006
918,2	0,005
918,6	0,005
919,1	0,006
919,5	0,006
919,9	0,005
920,3	0,005
920,8	0,005
921,2	0,006
921,6	0,006
922	0,006
922,5	0,006
922,9	0,006
923,3	0,005
923,7	0,005
924,2	0,005
924,6	0,005
925	0,005
925,4	0,006
925,8	0,006
926,3	0,006
926,7	0,007
927,1	0,007
927,5	0,007
928	0,007
928,4	0,007
928,8	0,007
929,2	0,008
929,7	0,008
930,1	0,008
930,5	0,008
930,9	0,008
931,3	0,008
931,8	0,008
932,2	0,008
932,6	0,008
933	0,008
933,5	0,008
933,9	0,008
934,3	0,009
934,7	0,009
935,2	0,009
935,6	0,009
936	0,008
936,4	0,008
936,8	0,008
937,3	0,008
937,7	0,008
938,1	0,008
938,5	0,008
939	0,009
939,4	0,009
939,8	0,008
940,2	0,009
940,6	0,009
941,1	0,009
941,5	0,009
941,9	0,009
942,3	0,009
942,8	0,01
943,2	0,01
943,6	0,01
944	0,01
944,4	0,01
944,9	0,01
945,3	0,01
945,7	0,01
946,1	0,01
946,6	0,01
947	0,01
947,4	0,01
947,8	0,01
948,2	0,011
948,7	0,011
949,1	0,011
949,5	0,011
949,9	0,011
950,3	0,011
950,8	0,012
951,2	0,011
951,6	0,011
952	0,011
952,5	0,012
952,9	0,012
953,3	0,013
953,7	0,013
954,1	0,014
954,6	0,014
955	0,015
955,4	0,014
955,8	0,015
956,2	0,015
956,7	0,014
957,1	0,014
957,5	0,014
957,9	0,015
958,3	0,015
958,8	0,015
959,2	0,015
959,6	0,016
960	0,015
960,5	0,015
960,9	0,016
961,3	0,016
961,7	0,016
962,1	0,016
962,6	0,017
963	0,018
963,4	0,018
963,8	0,017
964,2	0,017
964,7	0,017
965,1	0,017
965,5	0,016
965,9	0,016
966,3	0,016
966,8	0,016
967,2	0,016
967,6	0,016
968	0,016
968,4	0,015
968,9	0,015
969,3	0,015
969,7	0,015
970,1	0,015
970,5	0,014
971	0,015
971,4	0,014
971,8	0,014
972,2	0,014
972,6	0,014
973,1	0,014
973,5	0,015
973,9	0,014
974,3	0,014
974,7	0,014
975,2	0,013
975,6	0,013
976	0,013
976,4	0,013
976,8	0,014
977,3	0,013
977,7	0,014
978,1	0,014
978,5	0,014
978,9	0,013
979,4	0,012
979,8	0,011
980,2	0,012
980,6	0,011
981	0,011
981,5	0,011
981,9	0,01
982,3	0,01
982,7	0,011
983,1	0,01
983,6	0,01
984	0,01
984,4	0,01
984,8	0,01
985,2	0,01
985,6	0,009
986,1	0,009
986,5	0,009
986,9	0,009
987,3	0,009
987,7	0,009
988,2	0,009
988,6	0,009
989	0,009
989,4	0,008
989,8	0,008
990,3	0,009
990,7	0,009
991,1	0,009
991,5	0,009
991,9	0,009
992,3	0,009
992,8	0,009
993,2	0,008
993,6	0,008
994	0,007
994,4	0,007
994,9	0,006
995,3	0,006
995,7	0,006
996,1	0,006
996,5	0,006
996,9	0,006
997,4	0,005
997,8	0,005
998,2	0,005
998,6	0,005
999	0,004
999,5	0,004
999,9	0,004
1000,3	0,004
1000,7	0,004
1001,1	0,004
1001,5	0,005
1002	0,005
1002,4	0,005
1002,8	0,005
1003,2	0,004
1003,6	0,004
1004	0,004
1004,5	0,003
1004,9	0,003
1005,3	0,003
1005,7	0,003
1006,1	0,003
1006,6	0,003
1007	0,003
1007,4	0,003
1007,8	0,003
1008,2	0,004
1008,6	0,004
1009,1	0,004
1009,5	0,005
1009,9	0,005
1010,3	0,005
1010,7	0,004
1011,1	0,004
1011,6	0,003
1012	0,003
1012,4	0,003
1012,8	0,003
1013,2	0,003
1013,6	0,003
1014,1	0,003
1014,5	0,002
1014,9	0,002
1015,3	0,002
1015,7	0,002
1016,1	0,002
1016,6	0,002
1017	0,002
1017,4	0,003
1017,8	0,003
1018,2	0,003
1018,6	0,003
1019,1	0,003
1019,5	0,003
1019,9	0,002
1020,3	0,002
1020,7	0,001
1021,1	0,001
1021,6	0,001
1022	0
1022,4	-0
1022,8	0,001
1023,2	-0
1023,6	0
1024,1	0,001
1024,5	0
1024,9	0,001
1025,3	0,002
1025,7	0,002
1026,1	0,003
1026,6	0,004
1027	0,003
1027,4	0,004
1027,8	0,003
1028,2	0,002
1028,6	0,002
1029	0,002
1029,5	0,001
1029,9	0,002
1030,3	0,001
1030,7	0,001
1031,1	0,002
1031,5	0,003
1032	0,003
1032,4	0,003
1032,8	0,002
1033,2	0,001
1033,6	0,002
1034	0,001
1034,4	0
1034,9	0,001
1035,3	0,001
1035,7	0,001
1036,1	0,002
1036,5	0,002
1036,9	0,002
1037,4	0,003
1037,8	0,002
1038,2	0,002
1038,6	0,002
1039	0,002
1039,4	0,002
1039,8	0,002
1040,3	0
1040,7	0
1041,1	0
1041,5	-0
1041,9	-0,002
1042,3	-0,001
1042,7	-0,001
1043,2	-0,001
1043,6	-0
1044	-0
1044,4	0
1044,8	0
1045,2	0,002
1045,6	0,001
1046,1	0,002
1046,5	0,002
1046,9	0,002
1047,3	0,002
1047,7	0,003
1048,1	0,001
1048,5	0,002
1049	0,001
1049,4	0,001
1049,8	0
1050,2	0
1050,6	0
1051	0,002
1051,4	0,001
1051,9	0,001
1052,3	0,001
1052,7	0,002
1053,1	0,002
1053,5	0,002
1053,9	0,002
1054,3	0,003
1054,8	0,003
1055,2	0,003
1055,6	0,003
1056	0,002
1056,4	0,003
1056,8	0,003
1057,2	0,003
1057,6	0,002
1058,1	0,003
1058,5	0,003
1058,9	0,002
1059,3	0,001
1059,7	0,001
1060,1	0,001
1060,5	0,001
1061	0,001
1061,4	0,002
1061,8	0,004
1062,2	0,004
1062,6	0,004
1063	0,004
1063,4	0,004
1063,8	0,005
1064,3	0,005
1064,7	0,005
1065,1	0,005
1065,5	0,004
1065,9	0,005
1066,3	0,004
1066,7	0,004
1067,1	0,002
1067,6	0
1068	0,001
1068,4	0,001
1068,8	0,001
1069,2	0,001
1069,6	0,001
1070	0,002
1070,4	0,002
1070,9	0,002
1071,3	0,002
1071,7	0,001
1072,1	0,002
1072,5	0,001
1072,9	0,001
1073,3	-0
1073,7	-0
1074,2	0,001
1074,6	0,002
1075	0,004
1075,4	0,003
1075,8	0,001
1076,2	0,003
1076,6	0,002
1077	0,003
1077,5	0,001
1077,9	-0,001
1078,3	-0
1078,7	0
1079,1	0
1079,5	-0
1079,9	-0,001
1080,3	0
1080,7	0,001
1081,2	0,001
1081,6	0,004
1082	0,005
1082,4	0,007
1082,8	0,006
1083,2	0,005
1083,6	0,005
1084	0,007
1084,5	0,005
1084,9	0,007
1085,3	0,005
1085,7	0,006
1086,1	0,006
1086,5	0,004
1086,9	0,001
1087,3	0,003
1087,7	-0
1088,2	-0,002
1088,6	0,002
1089	0,003
1089,4	0,006
1089,8	0,007
1090,2	0,008
1090,6	0,01
1091	0,013
1091,4	0,014
1091,9	0,018
1092,3	0,014
1092,7	0,014
1093,1	0,006
1093,5	0,003
1093,9	0,004
1094,3	0,003
1094,7	0,001
1095,1	-0,001
1095,5	0,007
1096	0,013
1096,4	0,012
1096,8	0,014
1097,2	0,014
1097,6	0,017
1098	0,021
1098,4	0,012
1098,8	0,01
1099,2	0,016
1099,6	0,011
1100,1	0,002
1100,5	-0,005
1100,9	-0,002
1101,3	-0,012
1101,7	-0,009
1102,1	-0,013
1102,5	-0,009
1102,9	-0,012
1103,3	-0,008
1103,7	-0,001
1104,2	0,001
1104,6	0,009
1105	0,016
1105,4	0,02
1105,8	0,033
1106,2	0,031
1106,6	0,022
1107	0,042
1107,4	0,064
1107,8	0,084
1108,3	-0
