Data from Absorbance_19-02-01-910.txt Node
Date: Tue Nov 15 19:02:01 MSK 2022
User: vat
Spectrometer: MAYP114033
Trigger mode: 0
Integration Time (sec): 8,000000E-3
Scans to average: 10
Electric dark correction enabled: true
Nonlinearity correction enabled: false
Boxcar width: 3
XAxis mode: Wavelengths
Number of Pixels in Spectrum: 2068
>>>>>Begin Spectral Data<<<<<
199,4	-0,143
199,9	-0,192
200,4	-0,059
200,8	-0,065
201,3	-0,047
201,8	-0,07
202,2	-0,058
202,7	-0,057
203,2	-0,039
203,6	-0,044
204,1	-0,015
204,6	0,019
205	0,033
205,5	0,039
206	0,038
206,4	0,027
206,9	0,033
207,4	0,006
207,8	-0,021
208,3	-0,012
208,8	-0,021
209,2	-0,01
209,7	-0,007
210,2	-0,014
210,6	-0,006
211,1	-0,029
211,5	-0,019
212	-0,01
212,5	-0,008
212,9	0,006
213,4	0,02
213,9	0,032
214,3	0,057
214,8	0,047
215,3	0,066
215,7	0,068
216,2	0,03
216,7	0,053
217,1	0,053
217,6	0,053
218,1	0,022
218,5	0,026
219	0,034
219,5	0,085
219,9	0,052
220,4	0,054
220,9	0,048
221,3	0,053
221,8	0,038
222,3	0,031
222,7	0,021
223,2	0,02
223,6	0,014
224,1	0,012
224,6	0,023
225	0,037
225,5	0,036
226	0,039
226,4	0,058
226,9	0,041
227,4	0,055
227,8	0,055
228,3	0,038
228,8	0,017
229,2	0,006
229,7	-0,01
230,2	-0,014
230,6	-0,016
231,1	-0,023
231,5	-0,013
232	0,004
232,5	0,014
232,9	0,003
233,4	0,046
233,9	0,061
234,3	0,058
234,8	0,044
235,3	0,064
235,7	0,05
236,2	0,057
236,7	0,046
237,1	0,02
237,6	0,016
238,1	0,018
238,5	0,012
239	-0,002
239,4	-0,003
239,9	-0,006
240,4	-0,003
240,8	0,015
241,3	0,026
241,8	0,017
242,2	0,035
242,7	0,051
243,2	0,055
243,6	0,07
244,1	0,079
244,6	0,092
245	0,114
245,5	0,122
245,9	0,135
246,4	0,124
246,9	0,131
247,3	0,162
247,8	0,184
248,3	0,186
248,7	0,192
249,2	0,207
249,7	0,234
250,1	0,26
250,6	0,282
251	0,305
251,5	0,352
252	0,407
252,4	0,418
252,9	0,462
253,4	0,487
253,8	0,503
254,3	0,533
254,8	0,546
255,2	0,563
255,7	0,579
256,1	0,587
256,6	0,602
257,1	0,613
257,5	0,615
258	0,623
258,5	0,627
258,9	0,632
259,4	0,636
259,9	0,633
260,3	0,628
260,8	0,62
261,2	0,61
261,7	0,602
262,2	0,595
262,6	0,587
263,1	0,58
263,6	0,575
264	0,572
264,5	0,57
264,9	0,567
265,4	0,564
265,9	0,557
266,3	0,548
266,8	0,544
267,3	0,534
267,7	0,525
268,2	0,516
268,7	0,508
269,1	0,503
269,6	0,496
270	0,489
270,5	0,484
271	0,478
271,4	0,471
271,9	0,464
272,4	0,455
272,8	0,449
273,3	0,44
273,7	0,432
274,2	0,423
274,7	0,414
275,1	0,408
275,6	0,4
276,1	0,391
276,5	0,383
277	0,375
277,4	0,369
277,9	0,361
278,4	0,352
278,8	0,345
279,3	0,338
279,8	0,33
280,2	0,322
280,7	0,316
281,1	0,308
281,6	0,301
282,1	0,294
282,5	0,289
283	0,283
283,4	0,277
283,9	0,27
284,4	0,263
284,8	0,257
285,3	0,251
285,8	0,245
286,2	0,239
286,7	0,235
287,1	0,229
287,6	0,226
288,1	0,222
288,5	0,219
289	0,215
289,5	0,211
289,9	0,207
290,4	0,203
290,8	0,199
291,3	0,196
291,8	0,193
292,2	0,19
292,7	0,188
293,1	0,186
293,6	0,185
294,1	0,183
294,5	0,182
295	0,181
295,5	0,179
295,9	0,178
296,4	0,176
296,8	0,175
297,3	0,175
297,8	0,175
298,2	0,175
298,7	0,176
299,1	0,177
299,6	0,178
300,1	0,179
300,5	0,18
301	0,18
301,5	0,18
301,9	0,18
302,4	0,182
302,8	0,183
303,3	0,184
303,8	0,187
304,2	0,19
304,7	0,192
305,1	0,195
305,6	0,196
306,1	0,199
306,5	0,202
307	0,204
307,4	0,207
307,9	0,21
308,4	0,213
308,8	0,216
309,3	0,22
309,8	0,223
310,2	0,227
310,7	0,231
311,1	0,234
311,6	0,238
312,1	0,242
312,5	0,246
313	0,25
313,4	0,254
313,9	0,257
314,4	0,262
314,8	0,266
315,3	0,271
315,7	0,274
316,2	0,28
316,7	0,284
317,1	0,289
317,6	0,294
318	0,298
318,5	0,303
319	0,308
319,4	0,31
319,9	0,315
320,3	0,32
320,8	0,324
321,3	0,328
321,7	0,332
322,2	0,336
322,6	0,34
323,1	0,345
323,6	0,349
324	0,353
324,5	0,358
324,9	0,362
325,4	0,366
325,9	0,37
326,3	0,373
326,8	0,375
327,2	0,378
327,7	0,381
328,2	0,383
328,6	0,385
329,1	0,388
329,5	0,39
330	0,392
330,5	0,393
330,9	0,394
331,4	0,395
331,8	0,395
332,3	0,396
332,8	0,395
333,2	0,394
333,7	0,394
334,1	0,394
334,6	0,393
335,1	0,393
335,5	0,392
336	0,391
336,4	0,388
336,9	0,386
337,4	0,383
337,8	0,379
338,3	0,375
338,7	0,37
339,2	0,367
339,7	0,363
340,1	0,36
340,6	0,355
341	0,351
341,5	0,347
342	0,342
342,4	0,337
342,9	0,331
343,3	0,324
343,8	0,318
344,2	0,311
344,7	0,305
345,2	0,298
345,6	0,292
346,1	0,285
346,5	0,28
347	0,274
347,5	0,267
347,9	0,261
348,4	0,254
348,8	0,248
349,3	0,241
349,8	0,235
350,2	0,229
350,7	0,223
351,1	0,218
351,6	0,213
352	0,207
352,5	0,202
353	0,197
353,4	0,193
353,9	0,188
354,3	0,184
354,8	0,179
355,3	0,176
355,7	0,172
356,2	0,169
356,6	0,165
357,1	0,161
357,5	0,157
358	0,153
358,5	0,15
358,9	0,146
359,4	0,143
359,8	0,139
360,3	0,136
360,8	0,133
361,2	0,13
361,7	0,127
362,1	0,125
362,6	0,122
363	0,12
363,5	0,118
364	0,117
364,4	0,114
364,9	0,112
365,3	0,111
365,8	0,109
366,3	0,106
366,7	0,104
367,2	0,102
367,6	0,1
368,1	0,098
368,5	0,096
369	0,095
369,5	0,093
369,9	0,09
370,4	0,088
370,8	0,086
371,3	0,085
371,7	0,082
372,2	0,081
372,7	0,08
373,1	0,079
373,6	0,077
374	0,076
374,5	0,074
374,9	0,074
375,4	0,071
375,9	0,069
376,3	0,068
376,8	0,068
377,2	0,067
377,7	0,067
378,2	0,066
378,6	0,065
379,1	0,065
379,5	0,064
380	0,062
380,4	0,061
380,9	0,06
381,4	0,059
381,8	0,058
382,3	0,057
382,7	0,057
383,2	0,057
383,6	0,056
384,1	0,056
384,6	0,055
385	0,055
385,5	0,055
385,9	0,053
386,4	0,053
386,8	0,053
387,3	0,053
387,7	0,053
388,2	0,052
388,7	0,052
389,1	0,052
389,6	0,051
390	0,051
390,5	0,05
390,9	0,049
391,4	0,049
391,9	0,049
392,3	0,048
392,8	0,048
393,2	0,047
393,7	0,047
394,1	0,046
394,6	0,046
395,1	0,046
395,5	0,046
396	0,046
396,4	0,046
396,9	0,046
397,3	0,045
397,8	0,045
398,2	0,045
398,7	0,045
399,2	0,044
399,6	0,044
400,1	0,045
400,5	0,045
401	0,045
401,4	0,044
401,9	0,044
402,4	0,043
402,8	0,043
403,3	0,043
403,7	0,042
404,2	0,042
404,6	0,041
405,1	0,041
405,5	0,04
406	0,039
406,5	0,039
406,9	0,039
407,4	0,038
407,8	0,039
408,3	0,038
408,7	0,039
409,2	0,039
409,6	0,038
410,1	0,038
410,6	0,038
411	0,038
411,5	0,039
411,9	0,038
412,4	0,039
412,8	0,04
413,3	0,04
413,7	0,039
414,2	0,039
414,7	0,038
415,1	0,038
415,6	0,037
416	0,036
416,5	0,036
416,9	0,036
417,4	0,035
417,8	0,035
418,3	0,035
418,8	0,035
419,2	0,034
419,7	0,034
420,1	0,034
420,6	0,033
421	0,033
421,5	0,033
421,9	0,032
422,4	0,032
422,8	0,032
423,3	0,032
423,8	0,032
424,2	0,032
424,7	0,031
425,1	0,032
425,6	0,032
426	0,031
426,5	0,031
426,9	0,031
427,4	0,031
427,9	0,031
428,3	0,03
428,8	0,03
429,2	0,03
429,7	0,029
430,1	0,029
430,6	0,029
431	0,029
431,5	0,028
431,9	0,028
432,4	0,028
432,8	0,027
433,3	0,026
433,8	0,026
434,2	0,025
434,7	0,026
435,1	0,025
435,6	0,025
436	0,026
436,5	0,026
436,9	0,025
437,4	0,025
437,8	0,025
438,3	0,025
438,8	0,025
439,2	0,025
439,7	0,025
440,1	0,024
440,6	0,024
441	0,025
441,5	0,025
441,9	0,024
442,4	0,024
442,8	0,024
443,3	0,023
443,7	0,023
444,2	0,023
444,7	0,022
445,1	0,021
445,6	0,022
446	0,022
446,5	0,022
446,9	0,022
447,4	0,022
447,8	0,022
448,3	0,022
448,7	0,021
449,2	0,022
449,6	0,022
450,1	0,022
450,6	0,021
451	0,022
451,5	0,021
451,9	0,021
452,4	0,021
452,8	0,021
453,3	0,022
453,7	0,021
454,2	0,02
454,6	0,02
455,1	0,02
455,5	0,02
456	0,018
456,4	0,018
456,9	0,018
457,3	0,018
457,8	0,018
458,3	0,018
458,7	0,018
459,2	0,019
459,6	0,019
460,1	0,019
460,5	0,02
461	0,019
461,4	0,019
461,9	0,02
462,3	0,019
462,8	0,019
463,2	0,019
463,7	0,019
464,1	0,019
464,6	0,02
465	0,019
465,5	0,019
466	0,02
466,4	0,019
466,9	0,019
467,3	0,019
467,8	0,018
468,2	0,017
468,7	0,017
469,1	0,017
469,6	0,017
470	0,017
470,5	0,018
470,9	0,018
471,4	0,019
471,8	0,019
472,3	0,019
472,7	0,019
473,2	0,019
473,6	0,019
474,1	0,019
474,5	0,019
475	0,019
475,4	0,018
475,9	0,018
476,4	0,018
476,8	0,017
477,3	0,017
477,7	0,017
478,2	0,017
478,6	0,017
479,1	0,017
479,5	0,016
480	0,016
480,4	0,015
480,9	0,015
481,3	0,014
481,8	0,014
482,2	0,014
482,7	0,014
483,1	0,014
483,6	0,014
484	0,015
484,5	0,016
484,9	0,016
485,4	0,016
485,8	0,016
486,3	0,016
486,7	0,016
487,2	0,015
487,6	0,015
488,1	0,015
488,5	0,015
489	0,015
489,4	0,015
489,9	0,015
490,4	0,015
490,8	0,015
491,3	0,014
491,7	0,014
492,2	0,015
492,6	0,014
493,1	0,015
493,5	0,015
494	0,015
494,4	0,015
494,9	0,014
495,3	0,014
495,8	0,014
496,2	0,015
496,7	0,015
497,1	0,014
497,6	0,014
498	0,014
498,5	0,014
498,9	0,013
499,4	0,013
499,8	0,013
500,3	0,013
500,7	0,013
501,2	0,013
501,6	0,013
502,1	0,013
502,5	0,013
503	0,013
503,4	0,013
503,9	0,012
504,3	0,013
504,8	0,012
505,2	0,012
505,7	0,013
506,1	0,012
506,6	0,012
507	0,013
507,5	0,013
507,9	0,013
508,4	0,013
508,8	0,012
509,3	0,013
509,7	0,012
510,2	0,012
510,6	0,012
511,1	0,012
511,5	0,011
512	0,011
512,4	0,011
512,9	0,011
513,3	0,01
513,8	0,01
514,2	0,01
514,7	0,011
515,1	0,011
515,6	0,011
516	0,011
516,5	0,011
516,9	0,012
517,4	0,012
517,8	0,011
518,3	0,012
518,7	0,012
519,2	0,012
519,6	0,012
520,1	0,012
520,5	0,012
521	0,012
521,4	0,012
521,9	0,012
522,3	0,013
522,8	0,013
523,2	0,013
523,7	0,011
524,1	0,011
524,6	0,011
525	0,011
525,5	0,01
525,9	0,01
526,4	0,01
526,8	0,011
527,3	0,011
527,7	0,011
528,2	0,011
528,6	0,011
529,1	0,011
529,5	0,011
530	0,01
530,4	0,01
530,9	0,01
531,3	0,01
531,8	0,01
532,2	0,01
532,6	0,01
533,1	0,01
533,5	0,01
534	0,01
534,4	0,01
534,9	0,009
535,3	0,009
535,8	0,01
536,2	0,009
536,7	0,009
537,1	0,009
537,6	0,009
538	0,009
538,5	0,009
538,9	0,009
539,4	0,009
539,8	0,009
540,3	0,009
540,7	0,009
541,2	0,009
541,6	0,01
542,1	0,01
542,5	0,01
543	0,009
543,4	0,01
543,9	0,009
544,3	0,009
544,8	0,01
545,2	0,01
545,7	0,01
546,1	0,01
546,5	0,01
547	0,01
547,4	0,009
547,9	0,009
548,3	0,008
548,8	0,008
549,2	0,008
549,7	0,008
550,1	0,008
550,6	0,008
551	0,009
551,5	0,009
551,9	0,009
552,4	0,009
552,8	0,009
553,3	0,009
553,7	0,009
554,2	0,009
554,6	0,009
555,1	0,009
555,5	0,009
555,9	0,009
556,4	0,01
556,8	0,009
557,3	0,009
557,7	0,009
558,2	0,009
558,6	0,008
559,1	0,007
559,5	0,007
560	0,008
560,4	0,008
560,9	0,008
561,3	0,008
561,8	0,008
562,2	0,008
562,7	0,008
563,1	0,007
563,6	0,007
564	0,007
564,4	0,007
564,9	0,007
565,3	0,007
565,8	0,007
566,2	0,007
566,7	0,007
567,1	0,007
567,6	0,006
568	0,006
568,5	0,006
568,9	0,006
569,4	0,006
569,8	0,006
570,3	0,006
570,7	0,006
571,1	0,006
571,6	0,006
572	0,007
572,5	0,007
572,9	0,007
573,4	0,007
573,8	0,007
574,3	0,007
574,7	0,007
575,2	0,007
575,6	0,007
576,1	0,007
576,5	0,007
576,9	0,007
577,4	0,007
577,8	0,007
578,3	0,007
578,7	0,006
579,2	0,006
579,6	0,006
580,1	0,006
580,5	0,005
581	0,006
581,4	0,006
581,9	0,006
582,3	0,006
582,7	0,006
583,2	0,006
583,6	0,006
584,1	0,006
584,5	0,006
585	0,005
585,4	0,005
585,9	0,005
586,3	0,005
586,8	0,005
587,2	0,005
587,6	0,006
588,1	0,006
588,5	0,006
589	0,006
589,4	0,006
589,9	0,006
590,3	0,006
590,8	0,006
591,2	0,006
591,7	0,007
592,1	0,006
592,5	0,006
593	0,006
593,4	0,006
593,9	0,006
594,3	0,005
594,8	0,005
595,2	0,005
595,7	0,005
596,1	0,005
596,6	0,005
597	0,005
597,4	0,005
597,9	0,005
598,3	0,006
598,8	0,006
599,2	0,006
599,7	0,006
600,1	0,006
600,6	0,006
601	0,005
601,4	0,005
601,9	0,004
602,3	0,004
602,8	0,004
603,2	0,003
603,7	0,003
604,1	0,004
604,6	0,004
605	0,005
605,4	0,005
605,9	0,005
606,3	0,005
606,8	0,005
607,2	0,005
607,7	0,004
608,1	0,004
608,6	0,004
609	0,004
609,4	0,004
609,9	0,004
610,3	0,004
610,8	0,004
611,2	0,003
611,7	0,003
612,1	0,003
612,6	0,003
613	0,004
613,4	0,004
613,9	0,004
614,3	0,005
614,8	0,005
615,2	0,005
615,7	0,004
616,1	0,005
616,6	0,004
617	0,004
617,4	0,003
617,9	0,004
618,3	0,004
618,8	0,004
619,2	0,004
619,7	0,004
620,1	0,004
620,5	0,004
621	0,003
621,4	0,003
621,9	0,003
622,3	0,003
622,8	0,003
623,2	0,003
623,6	0,003
624,1	0,004
624,5	0,004
625	0,004
625,4	0,004
625,9	0,004
626,3	0,004
626,8	0,004
627,2	0,005
627,6	0,004
628,1	0,004
628,5	0,004
629	0,004
629,4	0,003
629,9	0,003
630,3	0,003
630,7	0,003
631,2	0,003
631,6	0,003
632,1	0,003
632,5	0,003
633	0,002
633,4	0,002
633,8	0,002
634,3	0,002
634,7	0,002
635,2	0,002
635,6	0,002
636,1	0,003
636,5	0,003
636,9	0,003
637,4	0,003
637,8	0,003
638,3	0,003
638,7	0,003
639,2	0,003
639,6	0,003
640	0,004
640,5	0,004
640,9	0,004
641,4	0,004
641,8	0,004
642,2	0,004
642,7	0,003
643,1	0,003
643,6	0,003
644	0,003
644,5	0,003
644,9	0,002
645,3	0,002
645,8	0,002
646,2	0,002
646,7	0,003
647,1	0,002
647,6	0,002
648	0,003
648,4	0,003
648,9	0,003
649,3	0,002
649,8	0,002
650,2	0,002
650,6	0,002
651,1	0,001
651,5	0,001
652	0,001
652,4	0,002
652,9	0,002
653,3	0,002
653,7	0,002
654,2	0,002
654,6	0,001
655,1	0,001
655,5	0
655,9	0,001
656,4	0,001
656,8	0,001
657,3	0,002
657,7	0,002
658,2	0,002
658,6	0,004
659	0,003
659,5	0,002
659,9	0,002
660,4	0,002
660,8	0,002
661,2	0,002
661,7	0,003
662,1	0,002
662,6	0,003
663	0,002
663,4	0,002
663,9	0,002
664,3	0,002
664,8	0,002
665,2	0,001
665,6	0,001
666,1	0,002
666,5	0,002
667	0,002
667,4	0,002
667,9	0,002
668,3	0,002
668,7	0,002
669,2	0,001
669,6	0,001
670,1	0,001
670,5	0
670,9	0
671,4	0,001
671,8	0,001
672,3	0,001
672,7	0,001
673,1	0,001
673,6	0,002
674	0,001
674,5	0,001
674,9	0,002
675,3	0,002
675,8	0,001
676,2	0,002
676,7	0,002
677,1	0,002
677,5	0,002
678	0,002
678,4	0,002
678,9	0,002
679,3	0,002
679,7	0,002
680,2	0,001
680,6	0,001
681,1	0,001
681,5	0,001
681,9	0,001
682,4	0,001
682,8	0,001
683,3	0,001
683,7	0,001
684,1	0,001
684,6	0,001
685	0,001
685,5	0,002
685,9	0,002
686,3	0,002
686,8	0,002
687,2	0,002
687,7	0,002
688,1	0,002
688,5	0,002
689	0,002
689,4	0,003
689,9	0,003
690,3	0,003
690,7	0,002
691,2	0,002
691,6	0,002
692	0,002
692,5	0,002
692,9	0,002
693,4	0,003
693,8	0,003
694,2	0,002
694,7	0,002
695,1	0,001
695,6	0,001
696	0,001
696,4	0
696,9	0,001
697,3	0,001
697,8	0,001
698,2	0,001
698,6	0,001
699,1	0,001
699,5	0,001
699,9	0,001
700,4	0,001
700,8	0,001
701,3	0,001
701,7	0,001
702,1	0,001
702,6	0,001
703	0,001
703,5	0,001
703,9	0,002
704,3	0,001
704,8	0,001
705,2	0,001
705,6	0,001
706,1	0,001
706,5	0,001
707	0,001
707,4	0,001
707,8	0,001
708,3	0,001
708,7	0,001
709,2	0,001
709,6	0,001
710	0,001
710,5	0,001
710,9	0,001
711,3	0,001
711,8	0,002
712,2	0,002
712,7	0,002
713,1	0,002
713,5	0,002
714	0,002
714,4	0,002
714,8	0,001
715,3	0,001
715,7	0,001
716,2	0,001
716,6	0,001
717	0,001
717,5	0,001
717,9	0,002
718,3	0,002
718,8	0,002
719,2	0,002
719,7	0,002
720,1	0,002
720,5	0,002
721	0,002
721,4	0,002
721,8	0,002
722,3	0,002
722,7	0,002
723,2	0,001
723,6	0,001
724	0,001
724,5	0,001
724,9	0,001
725,3	0,001
725,8	0,001
726,2	0,001
726,7	0,001
727,1	0,001
727,5	0
728	0,001
728,4	0,001
728,8	0,001
729,3	0,001
729,7	0,001
730,1	0,001
730,6	0,002
731	0,002
731,5	0,002
731,9	0,002
732,3	0,002
732,8	0,002
733,2	0,002
733,6	0,001
734,1	0,001
734,5	0,001
734,9	0,002
735,4	0,001
735,8	0,002
736,3	0,001
736,7	0,001
737,1	0,002
737,6	0,002
738	0,002
738,4	0,002
738,9	0,002
739,3	0,002
739,7	0,001
740,2	0,001
740,6	0,001
741,1	0,001
741,5	0,001
741,9	0,001
742,4	0,001
742,8	0,001
743,2	0,001
743,7	0,001
744,1	0,001
744,5	0,001
745	0,001
745,4	0,001
745,8	0,001
746,3	0,001
746,7	0,001
747,2	0,001
747,6	0,001
748	0,001
748,5	0,001
748,9	0,001
749,3	0,001
749,8	0,001
750,2	0,001
750,6	0,001
751,1	0,001
751,5	0,001
751,9	0,001
752,4	0,001
752,8	0,001
753,3	0,001
753,7	0,001
754,1	0,001
754,6	0,001
755	0,001
755,4	0,001
755,9	0,001
756,3	0,001
756,7	0,001
757,2	0,001
757,6	0,001
758	0,001
758,5	0,001
758,9	0,001
759,3	0,001
759,8	0,001
760,2	0,001
760,6	0,001
761,1	0,001
761,5	0,001
761,9	0,001
762,4	0,001
762,8	0,001
763,3	0,001
763,7	0,001
764,1	0,001
764,6	0,001
765	0,001
765,4	0,001
765,9	0
766,3	0
766,7	0
767,2	0
767,6	0
768	-0
768,5	0
768,9	0
769,3	0
769,8	0
770,2	-0
770,6	-0
771,1	0
771,5	-0
771,9	-0
772,4	-0
772,8	-0
773,2	0
773,7	0
774,1	0
774,5	0
775	0,001
775,4	0,001
775,8	0,001
776,3	0,001
776,7	0,001
777,1	0,001
777,6	0,001
778	0,001
778,4	0,001
778,9	0
779,3	0
779,7	0
780,2	0,001
780,6	0,001
781	0,001
781,5	0,001
781,9	0,001
782,3	0,001
782,8	0,001
783,2	0,001
783,6	0,001
784,1	0,001
784,5	0,001
784,9	0
785,4	0
785,8	-0
786,2	0
786,7	0
787,1	0
787,5	0,001
788	0
788,4	0
788,8	0
789,3	-0
789,7	-0,001
790,1	-0,001
790,6	-0,001
791	-0
791,4	-0,001
791,9	-0,001
792,3	-0
792,7	0
793,2	-0
793,6	-0
794	0
794,5	-0
794,9	0
795,3	0
795,8	-0
796,2	-0
796,6	-0
797,1	-0,001
797,5	-0
797,9	-0
798,4	-0
798,8	-0
799,2	0
799,7	0
800,1	0
800,5	0
801	0,001
801,4	0
801,8	0,001
802,2	0,001
802,7	0
803,1	0
803,5	0
804	0
804,4	0
804,8	0
805,3	0
805,7	0,001
806,1	0
806,6	0
807	-0
807,4	0
807,9	-0
808,3	0
808,7	-0
809,2	-0
809,6	-0
810	-0
810,4	-0
810,9	-0
811,3	-0,001
811,7	-0,001
812,2	-0,001
812,6	-0,001
813	-0,001
813,5	-0,001
813,9	-0,001
814,3	-0,001
814,8	0
815,2	0,001
815,6	0,001
816,1	0,001
816,5	0,001
816,9	0,002
817,3	0,001
817,8	0,001
818,2	0,001
818,6	0,001
819,1	0,001
819,5	0,001
819,9	0
820,4	0
820,8	0
821,2	0
821,7	0
822,1	0,001
822,5	0,001
822,9	0,001
823,4	0,001
823,8	0,001
824,2	0
824,7	0
825,1	-0
825,5	-0
826	-0
826,4	0
826,8	-0
827,3	-0
827,7	0
828,1	0
828,5	-0
829	0
829,4	-0
829,8	-0
830,3	-0
830,7	-0
831,1	-0
831,6	-0
832	0
832,4	0,001
832,8	0
833,3	0,001
833,7	0,001
834,1	0,001
834,6	0,001
835	0,001
835,4	0,001
835,8	0,001
836,3	0,001
836,7	0,001
837,1	0,001
837,6	0,001
838	0,001
838,4	0,001
838,9	0
839,3	0
839,7	0
840,1	0
840,6	0
841	0
841,4	0
841,9	0
842,3	0
842,7	-0
843,1	0
843,6	0
844	0,001
844,4	0
844,9	0,001
845,3	0,001
845,7	0,001
846,2	0
846,6	0
847	0,001
847,4	0,001
847,9	0,001
848,3	0,001
848,7	0,001
849,2	0,002
849,6	0,002
850	0,001
850,4	0,001
850,9	0,001
851,3	0,001
851,7	0,001
852,2	0
852,6	-0
853	-0
853,4	-0,001
853,9	-0
854,3	-0
854,7	0
855,2	0,001
855,6	0,001
856	0,001
856,4	0,001
856,9	0,001
857,3	0,001
857,7	0,001
858,2	0,001
858,6	0,001
859	0,002
859,4	0,001
859,9	0,001
860,3	0,001
860,7	0,001
861,1	0,001
861,6	0,001
862	0,001
862,4	0,001
862,9	0,001
863,3	0,002
863,7	0,002
864,1	0,002
864,6	0,001
865	0,001
865,4	0,001
865,9	0
866,3	-0
866,7	-0,001
867,1	-0
867,6	0
868	0
868,4	0,001
868,8	0,001
869,3	0,001
869,7	0
870,1	0
870,6	-0
871	-0
871,4	-0
871,8	-0
872,3	0
872,7	0
873,1	0
873,5	0
874	0,001
874,4	0,001
874,8	0,001
875,3	0,001
875,7	0,001
876,1	0,001
876,5	0,001
877	0,001
877,4	0,001
877,8	0,001
878,2	0
878,7	0,001
879,1	0
879,5	0
879,9	0
880,4	0
880,8	0
881,2	0
881,7	-0
882,1	0
882,5	0
882,9	0
883,4	0
883,8	0
884,2	0,001
884,6	0,001
885,1	0,001
885,5	0,001
885,9	0,001
886,3	0,001
886,8	0
887,2	-0
887,6	-0
888	-0
888,5	-0
888,9	-0
889,3	-0
889,8	-0
890,2	-0
890,6	-0
891	-0
891,5	-0
891,9	-0
892,3	-0
892,7	-0
893,2	-0
893,6	-0
894	-0
894,4	0
894,9	0
895,3	0,001
895,7	0
896,1	0
896,6	0
897	0
897,4	-0
897,8	0
898,3	-0
898,7	-0
899,1	0
899,5	-0,001
900	-0
900,4	0
900,8	0
901,2	0,001
901,7	0,001
902,1	0,001
902,5	0,002
902,9	0,002
903,4	0,001
903,8	0,001
904,2	0,001
904,6	0
905,1	0,001
905,5	0
905,9	0,001
906,3	0,001
906,8	0,001
907,2	0,001
907,6	0,001
908	0,001
908,5	0,001
908,9	0,001
909,3	0,001
909,7	0,001
910,2	0,001
910,6	0,001
911	0,001
911,4	0,001
911,9	0,001
912,3	0,001
912,7	0,001
913,1	0,001
913,6	0,001
914	0,001
914,4	0,001
914,8	0,001
915,3	0
915,7	-0
916,1	-0
916,5	-0
916,9	-0
917,4	-0
917,8	-0
918,2	0
918,6	0,001
919,1	0,001
919,5	0,001
919,9	0,001
920,3	0,001
920,8	0,001
921,2	0,001
921,6	0,001
922	0,001
922,5	0,001
922,9	0,001
923,3	0,001
923,7	0,001
924,2	0,001
924,6	0,001
925	0,001
925,4	0,001
925,8	0,001
926,3	0,001
926,7	0,001
927,1	0,001
927,5	0,002
928	0,002
928,4	0,002
928,8	0,002
929,2	0,001
929,7	0,001
930,1	0,002
930,5	0,002
930,9	0,001
931,3	0,002
931,8	0,002
932,2	0,002
932,6	0,002
933	0,001
933,5	0,001
933,9	0,002
934,3	0,002
934,7	0,002
935,2	0,003
935,6	0,003
936	0,004
936,4	0,004
936,8	0,003
937,3	0,003
937,7	0,003
938,1	0,003
938,5	0,002
939	0,003
939,4	0,003
939,8	0,003
940,2	0,003
940,6	0,003
941,1	0,003
941,5	0,003
941,9	0,002
942,3	0,002
942,8	0,002
943,2	0,003
943,6	0,003
944	0,003
944,4	0,003
944,9	0,003
945,3	0,004
945,7	0,003
946,1	0,004
946,6	0,004
947	0,005
947,4	0,004
947,8	0,004
948,2	0,004
948,7	0,005
949,1	0,005
949,5	0,005
949,9	0,005
950,3	0,005
950,8	0,006
951,2	0,007
951,6	0,007
952	0,006
952,5	0,006
952,9	0,007
953,3	0,006
953,7	0,006
954,1	0,005
954,6	0,006
955	0,006
955,4	0,006
955,8	0,007
956,2	0,007
956,7	0,008
957,1	0,008
957,5	0,008
957,9	0,008
958,3	0,008
958,8	0,008
959,2	0,008
959,6	0,008
960	0,008
960,5	0,007
960,9	0,008
961,3	0,007
961,7	0,007
962,1	0,007
962,6	0,007
963	0,008
963,4	0,007
963,8	0,008
964,2	0,008
964,7	0,009
965,1	0,009
965,5	0,009
965,9	0,008
966,3	0,009
966,8	0,008
967,2	0,008
967,6	0,008
968	0,008
968,4	0,008
968,9	0,008
969,3	0,008
969,7	0,007
970,1	0,007
970,5	0,007
971	0,007
971,4	0,006
971,8	0,006
972,2	0,006
972,6	0,006
973,1	0,007
973,5	0,006
973,9	0,007
974,3	0,007
974,7	0,007
975,2	0,007
975,6	0,007
976	0,006
976,4	0,006
976,8	0,006
977,3	0,005
977,7	0,005
978,1	0,005
978,5	0,006
978,9	0,006
979,4	0,006
979,8	0,007
980,2	0,006
980,6	0,006
981	0,007
981,5	0,006
981,9	0,006
982,3	0,006
982,7	0,006
983,1	0,007
983,6	0,006
984	0,005
984,4	0,005
984,8	0,005
985,2	0,004
985,6	0,004
986,1	0,003
986,5	0,004
986,9	0,004
987,3	0,004
987,7	0,004
988,2	0,004
988,6	0,004
989	0,004
989,4	0,003
989,8	0,003
990,3	0,003
990,7	0,003
991,1	0,003
991,5	0,003
991,9	0,003
992,3	0,003
992,8	0,003
993,2	0,003
993,6	0,003
994	0,003
994,4	0,003
994,9	0,002
995,3	0,001
995,7	0,002
996,1	0,001
996,5	0,001
996,9	0,001
997,4	0,001
997,8	0
998,2	0,002
998,6	0,001
999	0,001
999,5	0,002
999,9	0,001
1000,3	0,001
1000,7	0,001
1001,1	0
1001,5	0
1002	-0
1002,4	-0,001
1002,8	-0
1003,2	-0
1003,6	-0,001
1004	-0,001
1004,5	-0
1004,9	0
1005,3	-0
1005,7	-0
1006,1	-0
1006,6	0,001
1007	0
1007,4	-0,001
1007,8	-0
1008,2	-0
1008,6	-0
1009,1	-0,001
1009,5	-0,001
1009,9	-0,001
1010,3	-0,001
1010,7	-0,001
1011,1	-0,001
1011,6	-0,001
1012	-0,001
1012,4	-0,001
1012,8	-0,002
1013,2	-0,001
1013,6	-0,001
1014,1	-0
1014,5	-0
1014,9	-0
1015,3	-0
1015,7	-0,001
1016,1	-0,001
1016,6	-0,001
1017	-0,001
1017,4	-0,002
1017,8	-0,002
1018,2	-0,002
1018,6	-0,003
1019,1	-0,003
1019,5	-0,003
1019,9	-0,003
1020,3	-0,003
1020,7	-0,004
1021,1	-0,004
1021,6	-0,003
1022	-0,003
1022,4	-0,003
1022,8	-0,003
1023,2	-0,003
1023,6	-0,002
1024,1	-0,002
1024,5	-0,001
1024,9	-0,002
1025,3	-0,002
1025,7	-0,002
1026,1	-0,001
1026,6	-0,001
1027	-0,001
1027,4	-0,002
1027,8	-0,002
1028,2	-0,002
1028,6	-0,002
1029	-0,003
1029,5	-0,003
1029,9	-0,003
1030,3	-0,003
1030,7	-0,002
1031,1	-0,002
1031,5	-0,002
1032	-0,003
1032,4	-0,003
1032,8	-0,003
1033,2	-0,002
1033,6	-0,002
1034	-0,002
1034,4	-0,002
1034,9	-0,001
1035,3	0
1035,7	0
1036,1	0
1036,5	-0
1036,9	0,001
1037,4	0
1037,8	-0
1038,2	-0,002
1038,6	-0,003
1039	-0,002
1039,4	-0,002
1039,8	-0,002
1040,3	-0,003
1040,7	-0,004
1041,1	-0,003
1041,5	-0,003
1041,9	-0,004
1042,3	-0,004
1042,7	-0,005
1043,2	-0,003
1043,6	-0,002
1044	-0,002
1044,4	-0,002
1044,8	-0,001
1045,2	-0,001
1045,6	-0,001
1046,1	-0,002
1046,5	-0,002
1046,9	-0,001
1047,3	-0,001
1047,7	-0,001
1048,1	-0,001
1048,5	-0,001
1049	-0
1049,4	0
1049,8	-0
1050,2	-0
1050,6	-0,002
1051	-0,002
1051,4	-0,001
1051,9	-0,001
1052,3	-0,001
1052,7	-0,002
1053,1	-0,002
1053,5	-0,001
1053,9	-0
1054,3	-0,001
1054,8	-0,001
1055,2	-0,001
1055,6	-0,001
1056	-0
1056,4	-0,001
1056,8	-0,001
1057,2	-0
1057,6	0
1058,1	-0
1058,5	-0,001
1058,9	-0
1059,3	-0,001
1059,7	-0,001
1060,1	-0,001
1060,5	-0,001
1061	-0,001
1061,4	-0
1061,8	-0
1062,2	0,001
1062,6	0
1063	-0
1063,4	-0,002
1063,8	-0,001
1064,3	-0,001
1064,7	-0,001
1065,1	-0,001
1065,5	0,001
1065,9	0,001
1066,3	0,002
1066,7	0,002
1067,1	0,002
1067,6	0,003
1068	0,002
1068,4	0,002
1068,8	0,002
1069,2	0,002
1069,6	0,002
1070	0,001
1070,4	-0
1070,9	-0,001
1071,3	-0,002
1071,7	-0,001
1072,1	-0,002
1072,5	-0,001
1072,9	-0,001
1073,3	-0,001
1073,7	0,001
1074,2	0
1074,6	-0,001
1075	-0,001
1075,4	-0,002
1075,8	-0,003
1076,2	-0,002
1076,6	-0,004
1077	-0,004
1077,5	-0,003
1077,9	-0,001
1078,3	-0,003
1078,7	-0,003
1079,1	-0,003
1079,5	-0,002
1079,9	0,001
1080,3	-0,001
1080,7	-0,001
1081,2	0,001
1081,6	0,003
1082	0,003
1082,4	0,001
1082,8	-0,001
1083,2	0,001
1083,6	0,001
1084	-0,001
1084,5	-0,004
1084,9	-0,004
1085,3	-0,002
1085,7	-0,002
1086,1	-0,003
1086,5	-0,001
1086,9	-0,001
1087,3	0
1087,7	-0
1088,2	-0,001
1088,6	0,002
1089	0,004
1089,4	0,001
1089,8	0,004
1090,2	0,003
1090,6	0,003
1091	0,005
1091,4	0,003
1091,9	0
1092,3	0,004
1092,7	0,001
1093,1	0,004
1093,5	0,01
1093,9	0,008
1094,3	0,008
1094,7	0,006
1095,1	0,004
1095,5	0,002
1096	-0,006
1096,4	-0,013
1096,8	-0,013
1097,2	-0,019
1097,6	-0,02
1098	-0,024
1098,4	-0,022
1098,8	-0,013
1099,2	-0,005
1099,6	-0,008
1100,1	-0,006
1100,5	-0,008
1100,9	-0,007
1101,3	-0,013
1101,7	-0,016
1102,1	-0,024
1102,5	-0,014
1102,9	-0,018
1103,3	0,002
1103,7	0,008
1104,2	0,004
1104,6	0,009
1105	-0,001
1105,4	-0,008
1105,8	-0,004
1106,2	-0,015
1106,6	-0,023
1107	0,003
1107,4	-0,011
1107,8	0,057
1108,3	-0
