Data from Absorbance_18-57-03-451.txt Node
Date: Tue Nov 15 18:57:03 MSK 2022
User: vat
Spectrometer: MAYP114033
Trigger mode: 0
Integration Time (sec): 8,000000E-3
Scans to average: 10
Electric dark correction enabled: true
Nonlinearity correction enabled: false
Boxcar width: 3
XAxis mode: Wavelengths
Number of Pixels in Spectrum: 2068
>>>>>Begin Spectral Data<<<<<
199,4	0,793
199,9	0,32
200,4	-0,024
200,8	-0,06
201,3	-0,029
201,8	-0,069
202,2	-0,059
202,7	-0,049
203,2	-0,064
203,6	-0,057
204,1	-0,026
204,6	0
205	0,015
205,5	0,02
206	-0,007
206,4	0,005
206,9	0,031
207,4	0,04
207,8	0,028
208,3	0,032
208,8	0,018
209,2	0,04
209,7	0,036
210,2	0,028
210,6	0,01
211,1	-0,007
211,5	-0,011
212	-0,013
212,5	-0,003
212,9	0,024
213,4	0,039
213,9	0,045
214,3	0,048
214,8	0,063
215,3	0,074
215,7	0,098
216,2	0,061
216,7	0,053
217,1	0,047
217,6	0,072
218,1	0,045
218,5	0,09
219	0,049
219,5	0,084
219,9	0,082
220,4	0,081
220,9	0,066
221,3	0,09
221,8	0,057
222,3	0,067
222,7	0,048
223,2	0,049
223,6	0,063
224,1	0,051
224,6	0,032
225	0,047
225,5	0,052
226	0,067
226,4	0,095
226,9	0,058
227,4	0,066
227,8	0,084
228,3	0,061
228,8	0,058
229,2	0,037
229,7	0,018
230,2	0,038
230,6	0,038
231,1	0,034
231,5	0,047
232	0,04
232,5	0,07
232,9	0,051
233,4	0,093
233,9	0,086
234,3	0,073
234,8	0,055
235,3	0,103
235,7	0,086
236,2	0,083
236,7	0,034
237,1	0,027
237,6	0,034
238,1	0,057
238,5	0,028
239	0,029
239,4	0,025
239,9	0,035
240,4	0,04
240,8	0,029
241,3	0,016
241,8	0,001
242,2	-0,001
242,7	0,029
243,2	0,049
243,6	0,073
244,1	0,089
244,6	0,114
245	0,127
245,5	0,147
245,9	0,143
246,4	0,134
246,9	0,124
247,3	0,131
247,8	0,113
248,3	0,117
248,7	0,116
249,2	0,104
249,7	0,112
250,1	0,125
250,6	0,129
251	0,134
251,5	0,146
252	0,155
252,4	0,164
252,9	0,163
253,4	0,167
253,8	0,169
254,3	0,177
254,8	0,18
255,2	0,184
255,7	0,184
256,1	0,187
256,6	0,187
257,1	0,189
257,5	0,187
258	0,186
258,5	0,186
258,9	0,187
259,4	0,186
259,9	0,186
260,3	0,187
260,8	0,189
261,2	0,185
261,7	0,184
262,2	0,18
262,6	0,178
263,1	0,174
263,6	0,17
264	0,168
264,5	0,168
264,9	0,166
265,4	0,167
265,9	0,167
266,3	0,167
266,8	0,165
267,3	0,163
267,7	0,163
268,2	0,162
268,7	0,159
269,1	0,158
269,6	0,157
270	0,157
270,5	0,156
271	0,155
271,4	0,155
271,9	0,155
272,4	0,153
272,8	0,152
273,3	0,151
273,7	0,15
274,2	0,147
274,7	0,146
275,1	0,144
275,6	0,143
276,1	0,141
276,5	0,141
277	0,14
277,4	0,14
277,9	0,139
278,4	0,139
278,8	0,139
279,3	0,139
279,8	0,138
280,2	0,138
280,7	0,139
281,1	0,139
281,6	0,138
282,1	0,137
282,5	0,137
283	0,137
283,4	0,136
283,9	0,135
284,4	0,134
284,8	0,132
285,3	0,132
285,8	0,131
286,2	0,13
286,7	0,129
287,1	0,128
287,6	0,128
288,1	0,129
288,5	0,128
289	0,128
289,5	0,128
289,9	0,128
290,4	0,128
290,8	0,126
291,3	0,125
291,8	0,124
292,2	0,123
292,7	0,123
293,1	0,123
293,6	0,124
294,1	0,125
294,5	0,125
295	0,126
295,5	0,126
295,9	0,126
296,4	0,125
296,8	0,125
297,3	0,125
297,8	0,124
298,2	0,124
298,7	0,124
299,1	0,124
299,6	0,124
300,1	0,124
300,5	0,123
301	0,124
301,5	0,124
301,9	0,123
302,4	0,123
302,8	0,122
303,3	0,121
303,8	0,122
304,2	0,122
304,7	0,121
305,1	0,12
305,6	0,12
306,1	0,12
306,5	0,121
307	0,12
307,4	0,12
307,9	0,119
308,4	0,119
308,8	0,118
309,3	0,118
309,8	0,117
310,2	0,117
310,7	0,116
311,1	0,116
311,6	0,115
312,1	0,115
312,5	0,114
313	0,114
313,4	0,113
313,9	0,112
314,4	0,111
314,8	0,112
315,3	0,112
315,7	0,111
316,2	0,111
316,7	0,111
317,1	0,111
317,6	0,11
318	0,109
318,5	0,108
319	0,108
319,4	0,107
319,9	0,107
320,3	0,106
320,8	0,105
321,3	0,105
321,7	0,105
322,2	0,104
322,6	0,104
323,1	0,104
323,6	0,103
324	0,103
324,5	0,102
324,9	0,102
325,4	0,102
325,9	0,101
326,3	0,1
326,8	0,1
327,2	0,1
327,7	0,1
328,2	0,099
328,6	0,099
329,1	0,1
329,5	0,101
330	0,1
330,5	0,1
330,9	0,1
331,4	0,099
331,8	0,099
332,3	0,098
332,8	0,097
333,2	0,096
333,7	0,096
334,1	0,097
334,6	0,097
335,1	0,097
335,5	0,098
336	0,097
336,4	0,097
336,9	0,097
337,4	0,096
337,8	0,095
338,3	0,095
338,7	0,094
339,2	0,095
339,7	0,095
340,1	0,094
340,6	0,095
341	0,095
341,5	0,096
342	0,095
342,4	0,095
342,9	0,095
343,3	0,095
343,8	0,094
344,2	0,094
344,7	0,094
345,2	0,093
345,6	0,095
346,1	0,094
346,5	0,095
347	0,095
347,5	0,094
347,9	0,094
348,4	0,094
348,8	0,094
349,3	0,093
349,8	0,093
350,2	0,093
350,7	0,093
351,1	0,094
351,6	0,094
352	0,093
352,5	0,093
353	0,094
353,4	0,093
353,9	0,093
354,3	0,094
354,8	0,094
355,3	0,095
355,7	0,094
356,2	0,094
356,6	0,095
357,1	0,095
357,5	0,094
358	0,094
358,5	0,094
358,9	0,093
359,4	0,093
359,8	0,093
360,3	0,092
360,8	0,092
361,2	0,093
361,7	0,093
362,1	0,094
362,6	0,094
363	0,095
363,5	0,095
364	0,095
364,4	0,095
364,9	0,095
365,3	0,095
365,8	0,095
366,3	0,095
366,7	0,095
367,2	0,095
367,6	0,095
368,1	0,095
368,5	0,094
369	0,094
369,5	0,094
369,9	0,094
370,4	0,094
370,8	0,095
371,3	0,095
371,7	0,094
372,2	0,095
372,7	0,095
373,1	0,096
373,6	0,095
374	0,095
374,5	0,095
374,9	0,096
375,4	0,096
375,9	0,096
376,3	0,095
376,8	0,096
377,2	0,095
377,7	0,096
378,2	0,096
378,6	0,096
379,1	0,097
379,5	0,097
380	0,096
380,4	0,096
380,9	0,096
381,4	0,096
381,8	0,095
382,3	0,095
382,7	0,095
383,2	0,096
383,6	0,097
384,1	0,097
384,6	0,098
385	0,098
385,5	0,098
385,9	0,098
386,4	0,098
386,8	0,099
387,3	0,099
387,7	0,099
388,2	0,099
388,7	0,1
389,1	0,101
389,6	0,101
390	0,101
390,5	0,101
390,9	0,101
391,4	0,101
391,9	0,101
392,3	0,1
392,8	0,1
393,2	0,1
393,7	0,1
394,1	0,1
394,6	0,101
395,1	0,101
395,5	0,101
396	0,102
396,4	0,102
396,9	0,102
397,3	0,102
397,8	0,102
398,2	0,102
398,7	0,103
399,2	0,102
399,6	0,102
400,1	0,103
400,5	0,104
401	0,104
401,4	0,104
401,9	0,103
402,4	0,104
402,8	0,104
403,3	0,104
403,7	0,103
404,2	0,103
404,6	0,103
405,1	0,103
405,5	0,103
406	0,102
406,5	0,102
406,9	0,102
407,4	0,102
407,8	0,102
408,3	0,101
408,7	0,102
409,2	0,101
409,6	0,101
410,1	0,102
410,6	0,102
411	0,103
411,5	0,105
411,9	0,104
412,4	0,105
412,8	0,105
413,3	0,105
413,7	0,105
414,2	0,105
414,7	0,104
415,1	0,105
415,6	0,104
416	0,104
416,5	0,104
416,9	0,103
417,4	0,103
417,8	0,103
418,3	0,102
418,8	0,103
419,2	0,104
419,7	0,104
420,1	0,104
420,6	0,104
421	0,104
421,5	0,103
421,9	0,103
422,4	0,102
422,8	0,102
423,3	0,102
423,8	0,102
424,2	0,102
424,7	0,102
425,1	0,102
425,6	0,102
426	0,102
426,5	0,102
426,9	0,102
427,4	0,102
427,9	0,102
428,3	0,102
428,8	0,102
429,2	0,102
429,7	0,102
430,1	0,102
430,6	0,102
431	0,101
431,5	0,101
431,9	0,101
432,4	0,101
432,8	0,101
433,3	0,101
433,8	0,1
434,2	0,1
434,7	0,1
435,1	0,1
435,6	0,1
436	0,1
436,5	0,1
436,9	0,1
437,4	0,1
437,8	0,099
438,3	0,099
438,8	0,099
439,2	0,098
439,7	0,098
440,1	0,098
440,6	0,098
441	0,098
441,5	0,098
441,9	0,098
442,4	0,099
442,8	0,099
443,3	0,098
443,7	0,098
444,2	0,098
444,7	0,098
445,1	0,098
445,6	0,098
446	0,098
446,5	0,098
446,9	0,098
447,4	0,098
447,8	0,098
448,3	0,097
448,7	0,097
449,2	0,098
449,6	0,098
450,1	0,098
450,6	0,097
451	0,098
451,5	0,097
451,9	0,097
452,4	0,097
452,8	0,096
453,3	0,096
453,7	0,096
454,2	0,096
454,6	0,096
455,1	0,095
455,5	0,095
456	0,095
456,4	0,095
456,9	0,095
457,3	0,094
457,8	0,095
458,3	0,096
458,7	0,096
459,2	0,096
459,6	0,095
460,1	0,095
460,5	0,096
461	0,095
461,4	0,095
461,9	0,096
462,3	0,095
462,8	0,095
463,2	0,095
463,7	0,095
464,1	0,095
464,6	0,096
465	0,095
465,5	0,095
466	0,095
466,4	0,095
466,9	0,095
467,3	0,094
467,8	0,093
468,2	0,093
468,7	0,094
469,1	0,094
469,6	0,093
470	0,094
470,5	0,094
470,9	0,094
471,4	0,094
471,8	0,094
472,3	0,095
472,7	0,095
473,2	0,095
473,6	0,095
474,1	0,095
474,5	0,095
475	0,095
475,4	0,094
475,9	0,095
476,4	0,094
476,8	0,094
477,3	0,094
477,7	0,094
478,2	0,093
478,6	0,094
479,1	0,094
479,5	0,093
480	0,093
480,4	0,093
480,9	0,093
481,3	0,092
481,8	0,092
482,2	0,093
482,7	0,093
483,1	0,093
483,6	0,094
484	0,094
484,5	0,094
484,9	0,094
485,4	0,094
485,8	0,094
486,3	0,094
486,7	0,094
487,2	0,094
487,6	0,094
488,1	0,095
488,5	0,094
489	0,094
489,4	0,094
489,9	0,094
490,4	0,094
490,8	0,094
491,3	0,093
491,7	0,093
492,2	0,094
492,6	0,095
493,1	0,096
493,5	0,095
494	0,095
494,4	0,096
494,9	0,096
495,3	0,096
495,8	0,096
496,2	0,097
496,7	0,097
497,1	0,098
497,6	0,098
498	0,098
498,5	0,098
498,9	0,098
499,4	0,097
499,8	0,097
500,3	0,097
500,7	0,096
501,2	0,097
501,6	0,097
502,1	0,097
502,5	0,098
503	0,097
503,4	0,097
503,9	0,098
504,3	0,099
504,8	0,098
505,2	0,099
505,7	0,1
506,1	0,1
506,6	0,1
507	0,1
507,5	0,1
507,9	0,101
508,4	0,1
508,8	0,099
509,3	0,1
509,7	0,101
510,2	0,101
510,6	0,101
511,1	0,101
511,5	0,101
512	0,102
512,4	0,102
512,9	0,102
513,3	0,102
513,8	0,101
514,2	0,102
514,7	0,103
515,1	0,102
515,6	0,102
516	0,102
516,5	0,103
516,9	0,104
517,4	0,104
517,8	0,105
518,3	0,104
518,7	0,104
519,2	0,105
519,6	0,105
520,1	0,106
520,5	0,106
521	0,106
521,4	0,106
521,9	0,107
522,3	0,108
522,8	0,108
523,2	0,107
523,7	0,107
524,1	0,108
524,6	0,107
525	0,108
525,5	0,108
525,9	0,108
526,4	0,108
526,8	0,109
527,3	0,11
527,7	0,11
528,2	0,11
528,6	0,109
529,1	0,11
529,5	0,11
530	0,109
530,4	0,11
530,9	0,11
531,3	0,11
531,8	0,111
532,2	0,11
532,6	0,111
533,1	0,11
533,5	0,11
534	0,111
534,4	0,111
534,9	0,111
535,3	0,111
535,8	0,112
536,2	0,112
536,7	0,112
537,1	0,112
537,6	0,112
538	0,112
538,5	0,112
538,9	0,112
539,4	0,111
539,8	0,112
540,3	0,112
540,7	0,113
541,2	0,113
541,6	0,114
542,1	0,114
542,5	0,114
543	0,114
543,4	0,114
543,9	0,114
544,3	0,115
544,8	0,115
545,2	0,116
545,7	0,116
546,1	0,116
546,5	0,116
547	0,116
547,4	0,116
547,9	0,116
548,3	0,116
548,8	0,116
549,2	0,116
549,7	0,117
550,1	0,116
550,6	0,117
551	0,117
551,5	0,118
551,9	0,118
552,4	0,118
552,8	0,118
553,3	0,118
553,7	0,118
554,2	0,118
554,6	0,118
555,1	0,118
555,5	0,118
555,9	0,119
556,4	0,12
556,8	0,119
557,3	0,119
557,7	0,118
558,2	0,119
558,6	0,118
559,1	0,117
559,5	0,116
560	0,116
560,4	0,117
560,9	0,117
561,3	0,117
561,8	0,117
562,2	0,118
562,7	0,118
563,1	0,118
563,6	0,118
564	0,118
564,4	0,118
564,9	0,118
565,3	0,119
565,8	0,119
566,2	0,118
566,7	0,119
567,1	0,118
567,6	0,118
568	0,117
568,5	0,117
568,9	0,117
569,4	0,117
569,8	0,117
570,3	0,117
570,7	0,117
571,1	0,117
571,6	0,117
572	0,117
572,5	0,117
572,9	0,117
573,4	0,117
573,8	0,117
574,3	0,117
574,7	0,117
575,2	0,117
575,6	0,117
576,1	0,118
576,5	0,118
576,9	0,118
577,4	0,118
577,8	0,118
578,3	0,118
578,7	0,117
579,2	0,116
579,6	0,117
580,1	0,116
580,5	0,116
581	0,116
581,4	0,116
581,9	0,116
582,3	0,116
582,7	0,116
583,2	0,116
583,6	0,116
584,1	0,116
584,5	0,116
585	0,115
585,4	0,116
585,9	0,116
586,3	0,116
586,8	0,116
587,2	0,115
587,6	0,116
588,1	0,115
588,5	0,115
589	0,115
589,4	0,115
589,9	0,115
590,3	0,115
590,8	0,115
591,2	0,115
591,7	0,116
592,1	0,116
592,5	0,115
593	0,115
593,4	0,115
593,9	0,114
594,3	0,114
594,8	0,114
595,2	0,113
595,7	0,113
596,1	0,113
596,6	0,113
597	0,113
597,4	0,113
597,9	0,113
598,3	0,113
598,8	0,113
599,2	0,113
599,7	0,112
600,1	0,112
600,6	0,112
601	0,112
601,4	0,112
601,9	0,111
602,3	0,112
602,8	0,111
603,2	0,111
603,7	0,111
604,1	0,111
604,6	0,111
605	0,111
605,4	0,111
605,9	0,112
606,3	0,112
606,8	0,111
607,2	0,111
607,7	0,111
608,1	0,11
608,6	0,11
609	0,109
609,4	0,11
609,9	0,109
610,3	0,109
610,8	0,109
611,2	0,109
611,7	0,108
612,1	0,109
612,6	0,109
613	0,109
613,4	0,109
613,9	0,109
614,3	0,109
614,8	0,109
615,2	0,108
615,7	0,108
616,1	0,107
616,6	0,107
617	0,106
617,4	0,106
617,9	0,106
618,3	0,106
618,8	0,106
619,2	0,106
619,7	0,106
620,1	0,106
620,5	0,106
621	0,105
621,4	0,106
621,9	0,105
622,3	0,105
622,8	0,104
623,2	0,104
623,6	0,104
624,1	0,104
624,5	0,103
625	0,103
625,4	0,103
625,9	0,103
626,3	0,103
626,8	0,103
627,2	0,103
627,6	0,102
628,1	0,102
628,5	0,102
629	0,101
629,4	0,101
629,9	0,1
630,3	0,1
630,7	0,1
631,2	0,1
631,6	0,1
632,1	0,099
632,5	0,099
633	0,099
633,4	0,098
633,8	0,098
634,3	0,098
634,7	0,097
635,2	0,098
635,6	0,098
636,1	0,097
636,5	0,097
636,9	0,097
637,4	0,097
637,8	0,097
638,3	0,096
638,7	0,096
639,2	0,095
639,6	0,095
640	0,095
640,5	0,095
640,9	0,095
641,4	0,094
641,8	0,094
642,2	0,094
642,7	0,094
643,1	0,093
643,6	0,092
644	0,092
644,5	0,092
644,9	0,092
645,3	0,092
645,8	0,092
646,2	0,092
646,7	0,092
647,1	0,092
647,6	0,091
648	0,091
648,4	0,09
648,9	0,09
649,3	0,09
649,8	0,089
650,2	0,088
650,6	0,088
651,1	0,087
651,5	0,087
652	0,086
652,4	0,087
652,9	0,087
653,3	0,087
653,7	0,087
654,2	0,087
654,6	0,086
655,1	0,084
655,5	0,056
655,9	0,061
656,4	0,062
656,8	0,062
657,3	0,061
657,7	0,059
658,2	0,051
658,6	0,086
659	0,085
659,5	0,084
659,9	0,083
660,4	0,083
660,8	0,083
661,2	0,083
661,7	0,083
662,1	0,083
662,6	0,083
663	0,082
663,4	0,082
663,9	0,082
664,3	0,082
664,8	0,081
665,2	0,081
665,6	0,08
666,1	0,081
666,5	0,08
667	0,08
667,4	0,079
667,9	0,079
668,3	0,079
668,7	0,078
669,2	0,078
669,6	0,078
670,1	0,078
670,5	0,077
670,9	0,077
671,4	0,077
671,8	0,077
672,3	0,077
672,7	0,077
673,1	0,076
673,6	0,076
674	0,076
674,5	0,076
674,9	0,075
675,3	0,075
675,8	0,075
676,2	0,075
676,7	0,075
677,1	0,076
677,5	0,075
678	0,075
678,4	0,075
678,9	0,075
679,3	0,075
679,7	0,075
680,2	0,074
680,6	0,074
681,1	0,074
681,5	0,073
681,9	0,073
682,4	0,073
682,8	0,072
683,3	0,072
683,7	0,071
684,1	0,071
684,6	0,071
685	0,071
685,5	0,071
685,9	0,071
686,3	0,071
686,8	0,071
687,2	0,071
687,7	0,071
688,1	0,071
688,5	0,071
689	0,071
689,4	0,072
689,9	0,071
690,3	0,071
690,7	0,071
691,2	0,071
691,6	0,07
692	0,07
692,5	0,07
692,9	0,07
693,4	0,07
693,8	0,07
694,2	0,07
694,7	0,069
695,1	0,069
695,6	0,069
696	0,068
696,4	0,068
696,9	0,069
697,3	0,068
697,8	0,068
698,2	0,068
698,6	0,068
699,1	0,068
699,5	0,068
699,9	0,067
700,4	0,067
700,8	0,067
701,3	0,067
701,7	0,066
702,1	0,066
702,6	0,066
703	0,066
703,5	0,066
703,9	0,066
704,3	0,065
704,8	0,065
705,2	0,065
705,6	0,065
706,1	0,064
706,5	0,064
707	0,064
707,4	0,064
707,8	0,064
708,3	0,064
708,7	0,064
709,2	0,064
709,6	0,063
710	0,063
710,5	0,063
710,9	0,063
711,3	0,063
711,8	0,063
712,2	0,063
712,7	0,063
713,1	0,063
713,5	0,062
714	0,062
714,4	0,062
714,8	0,062
715,3	0,062
715,7	0,061
716,2	0,061
716,6	0,061
717	0,061
717,5	0,061
717,9	0,061
718,3	0,06
718,8	0,06
719,2	0,06
719,7	0,059
720,1	0,059
720,5	0,059
721	0,059
721,4	0,058
721,8	0,058
722,3	0,058
722,7	0,057
723,2	0,057
723,6	0,056
724	0,056
724,5	0,056
724,9	0,056
725,3	0,056
725,8	0,056
726,2	0,056
726,7	0,056
727,1	0,055
727,5	0,055
728	0,055
728,4	0,055
728,8	0,054
729,3	0,054
729,7	0,053
730,1	0,053
730,6	0,053
731	0,053
731,5	0,052
731,9	0,052
732,3	0,052
732,8	0,052
733,2	0,052
733,6	0,051
734,1	0,051
734,5	0,051
734,9	0,051
735,4	0,05
735,8	0,05
736,3	0,05
736,7	0,05
737,1	0,05
737,6	0,05
738	0,05
738,4	0,049
738,9	0,049
739,3	0,049
739,7	0,048
740,2	0,048
740,6	0,048
741,1	0,048
741,5	0,048
741,9	0,048
742,4	0,048
742,8	0,047
743,2	0,047
743,7	0,046
744,1	0,046
744,5	0,046
745	0,046
745,4	0,045
745,8	0,045
746,3	0,045
746,7	0,045
747,2	0,044
747,6	0,044
748	0,043
748,5	0,043
748,9	0,043
749,3	0,043
749,8	0,043
750,2	0,043
750,6	0,043
751,1	0,043
751,5	0,043
751,9	0,042
752,4	0,042
752,8	0,042
753,3	0,042
753,7	0,042
754,1	0,041
754,6	0,041
755	0,041
755,4	0,041
755,9	0,041
756,3	0,041
756,7	0,04
757,2	0,04
757,6	0,04
758	0,04
758,5	0,04
758,9	0,039
759,3	0,039
759,8	0,04
760,2	0,04
760,6	0,039
761,1	0,039
761,5	0,039
761,9	0,039
762,4	0,039
762,8	0,038
763,3	0,038
763,7	0,038
764,1	0,037
764,6	0,037
765	0,036
765,4	0,036
765,9	0,036
766,3	0,036
766,7	0,035
767,2	0,035
767,6	0,035
768	0,035
768,5	0,035
768,9	0,035
769,3	0,035
769,8	0,035
770,2	0,034
770,6	0,034
771,1	0,034
771,5	0,034
771,9	0,035
772,4	0,034
772,8	0,034
773,2	0,035
773,7	0,034
774,1	0,034
774,5	0,034
775	0,034
775,4	0,034
775,8	0,034
776,3	0,034
776,7	0,035
777,1	0,035
777,6	0,034
778	0,034
778,4	0,034
778,9	0,033
779,3	0,032
779,7	0,032
780,2	0,032
780,6	0,032
781	0,032
781,5	0,032
781,9	0,032
782,3	0,032
782,8	0,032
783,2	0,032
783,6	0,032
784,1	0,032
784,5	0,032
784,9	0,032
785,4	0,032
785,8	0,032
786,2	0,032
786,7	0,032
787,1	0,031
787,5	0,032
788	0,031
788,4	0,031
788,8	0,031
789,3	0,031
789,7	0,03
790,1	0,03
790,6	0,03
791	0,03
791,4	0,03
791,9	0,029
792,3	0,029
792,7	0,03
793,2	0,03
793,6	0,029
794	0,029
794,5	0,029
794,9	0,029
795,3	0,029
795,8	0,029
796,2	0,029
796,6	0,029
797,1	0,029
797,5	0,029
797,9	0,029
798,4	0,029
798,8	0,028
799,2	0,029
799,7	0,029
800,1	0,028
800,5	0,028
801	0,028
801,4	0,027
801,8	0,028
802,2	0,027
802,7	0,027
803,1	0,027
803,5	0,027
804	0,028
804,4	0,028
804,8	0,027
805,3	0,027
805,7	0,027
806,1	0,027
806,6	0,027
807	0,027
807,4	0,027
807,9	0,027
808,3	0,027
808,7	0,027
809,2	0,027
809,6	0,027
810	0,027
810,4	0,027
810,9	0,026
811,3	0,026
811,7	0,026
812,2	0,026
812,6	0,026
813	0,026
813,5	0,026
813,9	0,026
814,3	0,026
814,8	0,027
815,2	0,026
815,6	0,027
816,1	0,027
816,5	0,027
816,9	0,027
817,3	0,026
817,8	0,026
818,2	0,026
818,6	0,026
819,1	0,026
819,5	0,026
819,9	0,026
820,4	0,026
820,8	0,026
821,2	0,026
821,7	0,026
822,1	0,026
822,5	0,026
822,9	0,026
823,4	0,025
823,8	0,025
824,2	0,025
824,7	0,025
825,1	0,025
825,5	0,024
826	0,025
826,4	0,025
826,8	0,025
827,3	0,025
827,7	0,026
828,1	0,026
828,5	0,026
829	0,026
829,4	0,025
829,8	0,025
830,3	0,025
830,7	0,025
831,1	0,025
831,6	0,025
832	0,024
832,4	0,024
832,8	0,024
833,3	0,024
833,7	0,024
834,1	0,024
834,6	0,024
835	0,024
835,4	0,024
835,8	0,025
836,3	0,025
836,7	0,025
837,1	0,025
837,6	0,025
838	0,025
838,4	0,024
838,9	0,024
839,3	0,024
839,7	0,024
840,1	0,023
840,6	0,023
841	0,023
841,4	0,023
841,9	0,022
842,3	0,022
842,7	0,022
843,1	0,023
843,6	0,023
844	0,023
844,4	0,023
844,9	0,024
845,3	0,024
845,7	0,024
846,2	0,023
846,6	0,023
847	0,023
847,4	0,023
847,9	0,023
848,3	0,023
848,7	0,023
849,2	0,023
849,6	0,023
850	0,022
850,4	0,022
850,9	0,023
851,3	0,023
851,7	0,023
852,2	0,023
852,6	0,022
853	0,022
853,4	0,022
853,9	0,022
854,3	0,022
854,7	0,022
855,2	0,022
855,6	0,022
856	0,022
856,4	0,023
856,9	0,023
857,3	0,022
857,7	0,023
858,2	0,023
858,6	0,022
859	0,022
859,4	0,022
859,9	0,022
860,3	0,022
860,7	0,021
861,1	0,021
861,6	0,022
862	0,021
862,4	0,021
862,9	0,021
863,3	0,021
863,7	0,021
864,1	0,021
864,6	0,021
865	0,021
865,4	0,021
865,9	0,021
866,3	0,021
866,7	0,021
867,1	0,02
867,6	0,021
868	0,021
868,4	0,02
868,8	0,02
869,3	0,02
869,7	0,02
870,1	0,02
870,6	0,02
871	0,019
871,4	0,02
871,8	0,02
872,3	0,021
872,7	0,021
873,1	0,021
873,5	0,021
874	0,021
874,4	0,021
874,8	0,02
875,3	0,02
875,7	0,02
876,1	0,021
876,5	0,021
877	0,021
877,4	0,02
877,8	0,02
878,2	0,02
878,7	0,02
879,1	0,02
879,5	0,02
879,9	0,019
880,4	0,019
880,8	0,019
881,2	0,019
881,7	0,019
882,1	0,019
882,5	0,019
882,9	0,019
883,4	0,019
883,8	0,019
884,2	0,02
884,6	0,02
885,1	0,02
885,5	0,019
885,9	0,019
886,3	0,019
886,8	0,019
887,2	0,019
887,6	0,019
888	0,019
888,5	0,018
888,9	0,018
889,3	0,018
889,8	0,018
890,2	0,017
890,6	0,017
891	0,017
891,5	0,018
891,9	0,018
892,3	0,018
892,7	0,018
893,2	0,019
893,6	0,019
894	0,019
894,4	0,019
894,9	0,019
895,3	0,018
895,7	0,019
896,1	0,018
896,6	0,019
897	0,018
897,4	0,018
897,8	0,018
898,3	0,018
898,7	0,018
899,1	0,018
899,5	0,018
900	0,018
900,4	0,018
900,8	0,018
901,2	0,018
901,7	0,018
902,1	0,018
902,5	0,019
902,9	0,019
903,4	0,019
903,8	0,019
904,2	0,019
904,6	0,019
905,1	0,019
905,5	0,019
905,9	0,018
906,3	0,019
906,8	0,018
907,2	0,019
907,6	0,019
908	0,018
908,5	0,018
908,9	0,018
909,3	0,018
909,7	0,018
910,2	0,018
910,6	0,019
911	0,019
911,4	0,019
911,9	0,019
912,3	0,019
912,7	0,019
913,1	0,019
913,6	0,019
914	0,018
914,4	0,018
914,8	0,018
915,3	0,018
915,7	0,018
916,1	0,017
916,5	0,017
916,9	0,017
917,4	0,018
917,8	0,018
918,2	0,018
918,6	0,018
919,1	0,018
919,5	0,019
919,9	0,019
920,3	0,019
920,8	0,019
921,2	0,019
921,6	0,018
922	0,018
922,5	0,018
922,9	0,018
923,3	0,017
923,7	0,017
924,2	0,017
924,6	0,017
925	0,017
925,4	0,017
925,8	0,017
926,3	0,017
926,7	0,018
927,1	0,018
927,5	0,018
928	0,018
928,4	0,018
928,8	0,018
929,2	0,018
929,7	0,018
930,1	0,018
930,5	0,018
930,9	0,018
931,3	0,018
931,8	0,018
932,2	0,018
932,6	0,018
933	0,017
933,5	0,018
933,9	0,017
934,3	0,017
934,7	0,018
935,2	0,018
935,6	0,018
936	0,018
936,4	0,018
936,8	0,018
937,3	0,018
937,7	0,018
938,1	0,018
938,5	0,018
939	0,018
939,4	0,018
939,8	0,018
940,2	0,017
940,6	0,017
941,1	0,017
941,5	0,017
941,9	0,017
942,3	0,017
942,8	0,017
943,2	0,017
943,6	0,018
944	0,018
944,4	0,019
944,9	0,019
945,3	0,019
945,7	0,02
946,1	0,021
946,6	0,022
947	0,022
947,4	0,021
947,8	0,021
948,2	0,02
948,7	0,02
949,1	0,02
949,5	0,02
949,9	0,02
950,3	0,02
950,8	0,02
951,2	0,021
951,6	0,02
952	0,02
952,5	0,02
952,9	0,02
953,3	0,02
953,7	0,02
954,1	0,02
954,6	0,02
955	0,021
955,4	0,021
955,8	0,021
956,2	0,022
956,7	0,022
957,1	0,022
957,5	0,023
957,9	0,023
958,3	0,023
958,8	0,023
959,2	0,023
959,6	0,022
960	0,022
960,5	0,021
960,9	0,022
961,3	0,021
961,7	0,021
962,1	0,022
962,6	0,022
963	0,022
963,4	0,023
963,8	0,022
964,2	0,023
964,7	0,023
965,1	0,022
965,5	0,022
965,9	0,022
966,3	0,022
966,8	0,022
967,2	0,022
967,6	0,022
968	0,022
968,4	0,022
968,9	0,021
969,3	0,021
969,7	0,02
970,1	0,02
970,5	0,02
971	0,02
971,4	0,019
971,8	0,019
972,2	0,019
972,6	0,02
973,1	0,02
973,5	0,02
973,9	0,02
974,3	0,02
974,7	0,02
975,2	0,02
975,6	0,02
976	0,02
976,4	0,019
976,8	0,02
977,3	0,019
977,7	0,019
978,1	0,019
978,5	0,019
978,9	0,019
979,4	0,019
979,8	0,019
980,2	0,019
980,6	0,018
981	0,018
981,5	0,018
981,9	0,018
982,3	0,018
982,7	0,017
983,1	0,018
983,6	0,018
984	0,018
984,4	0,017
984,8	0,016
985,2	0,016
985,6	0,016
986,1	0,016
986,5	0,017
986,9	0,016
987,3	0,017
987,7	0,017
988,2	0,017
988,6	0,018
989	0,018
989,4	0,017
989,8	0,017
990,3	0,017
990,7	0,017
991,1	0,016
991,5	0,017
991,9	0,016
992,3	0,016
992,8	0,016
993,2	0,016
993,6	0,015
994	0,015
994,4	0,015
994,9	0,015
995,3	0,014
995,7	0,015
996,1	0,014
996,5	0,014
996,9	0,015
997,4	0,015
997,8	0,015
998,2	0,016
998,6	0,015
999	0,014
999,5	0,014
999,9	0,014
1000,3	0,013
1000,7	0,013
1001,1	0,013
1001,5	0,013
1002	0,013
1002,4	0,013
1002,8	0,013
1003,2	0,013
1003,6	0,013
1004	0,013
1004,5	0,014
1004,9	0,014
1005,3	0,015
1005,7	0,014
1006,1	0,014
1006,6	0,014
1007	0,014
1007,4	0,014
1007,8	0,014
1008,2	0,014
1008,6	0,014
1009,1	0,014
1009,5	0,014
1009,9	0,014
1010,3	0,014
1010,7	0,013
1011,1	0,013
1011,6	0,013
1012	0,013
1012,4	0,012
1012,8	0,012
1013,2	0,012
1013,6	0,012
1014,1	0,012
1014,5	0,012
1014,9	0,011
1015,3	0,012
1015,7	0,011
1016,1	0,011
1016,6	0,011
1017	0,01
1017,4	0,01
1017,8	0,01
1018,2	0,009
1018,6	0,01
1019,1	0,01
1019,5	0,01
1019,9	0,011
1020,3	0,012
1020,7	0,011
1021,1	0,012
1021,6	0,012
1022	0,012
1022,4	0,011
1022,8	0,012
1023,2	0,011
1023,6	0,011
1024,1	0,011
1024,5	0,01
1024,9	0,011
1025,3	0,011
1025,7	0,011
1026,1	0,012
1026,6	0,012
1027	0,012
1027,4	0,012
1027,8	0,012
1028,2	0,012
1028,6	0,011
1029	0,011
1029,5	0,011
1029,9	0,012
1030,3	0,012
1030,7	0,011
1031,1	0,012
1031,5	0,012
1032	0,011
1032,4	0,011
1032,8	0,01
1033,2	0,01
1033,6	0,011
1034	0,011
1034,4	0,011
1034,9	0,012
1035,3	0,012
1035,7	0,013
1036,1	0,012
1036,5	0,012
1036,9	0,012
1037,4	0,012
1037,8	0,012
1038,2	0,012
1038,6	0,011
1039	0,011
1039,4	0,011
1039,8	0,011
1040,3	0,01
1040,7	0,01
1041,1	0,009
1041,5	0,009
1041,9	0,01
1042,3	0,009
1042,7	0,008
1043,2	0,009
1043,6	0,011
1044	0,011
1044,4	0,01
1044,8	0,01
1045,2	0,011
1045,6	0,012
1046,1	0,011
1046,5	0,01
1046,9	0,011
1047,3	0,011
1047,7	0,01
1048,1	0,009
1048,5	0,01
1049	0,01
1049,4	0,01
1049,8	0,01
1050,2	0,01
1050,6	0,011
1051	0,011
1051,4	0,012
1051,9	0,012
1052,3	0,012
1052,7	0,012
1053,1	0,013
1053,5	0,012
1053,9	0,013
1054,3	0,013
1054,8	0,013
1055,2	0,013
1055,6	0,013
1056	0,012
1056,4	0,012
1056,8	0,01
1057,2	0,011
1057,6	0,011
1058,1	0,011
1058,5	0,01
1058,9	0,01
1059,3	0,01
1059,7	0,01
1060,1	0,009
1060,5	0,009
1061	0,009
1061,4	0,01
1061,8	0,01
1062,2	0,011
1062,6	0,011
1063	0,01
1063,4	0,01
1063,8	0,011
1064,3	0,011
1064,7	0,011
1065,1	0,013
1065,5	0,014
1065,9	0,014
1066,3	0,014
1066,7	0,014
1067,1	0,015
1067,6	0,013
1068	0,012
1068,4	0,013
1068,8	0,012
1069,2	0,013
1069,6	0,013
1070	0,013
1070,4	0,013
1070,9	0,013
1071,3	0,011
1071,7	0,012
1072,1	0,011
1072,5	0,011
1072,9	0,01
1073,3	0,01
1073,7	0,012
1074,2	0,013
1074,6	0,012
1075	0,013
1075,4	0,011
1075,8	0,013
1076,2	0,013
1076,6	0,011
1077	0,01
1077,5	0,01
1077,9	0,01
1078,3	0,009
1078,7	0,009
1079,1	0,008
1079,5	0,009
1079,9	0,011
1080,3	0,013
1080,7	0,012
1081,2	0,012
1081,6	0,012
1082	0,014
1082,4	0,014
1082,8	0,015
1083,2	0,014
1083,6	0,013
1084	0,015
1084,5	0,014
1084,9	0,014
1085,3	0,013
1085,7	0,009
1086,1	0,007
1086,5	0,01
1086,9	0,012
1087,3	0,01
1087,7	0,006
1088,2	0,004
1088,6	0,005
1089	0,007
1089,4	0,006
1089,8	0,003
1090,2	0,006
1090,6	0,008
1091	0,012
1091,4	0,013
1091,9	0,012
1092,3	0,01
1092,7	0,014
1093,1	0,013
1093,5	0,017
1093,9	0,015
1094,3	0,014
1094,7	0,018
1095,1	0,019
1095,5	0,014
1096	0,009
1096,4	0,009
1096,8	0,011
1097,2	0,004
1097,6	-0,001
1098	-0,011
1098,4	-0,007
1098,8	-0
1099,2	-0,003
1099,6	-0,003
1100,1	-0,008
1100,5	-0,015
1100,9	-0,004
1101,3	-0,006
1101,7	-0,003
1102,1	0,001
1102,5	-0,002
1102,9	0,015
1103,3	0,031
1103,7	0,03
1104,2	0,028
1104,6	0,023
1105	0,005
1105,4	0,007
1105,8	0,001
1106,2	-0,015
1106,6	-0,026
1107	-0,028
1107,4	-0,056
1107,8	-0,01
1108,3	-0,091
