Data from Absorbance_18-53-58-475.txt Node
Date: Tue Nov 15 18:53:58 MSK 2022
User: vat
Spectrometer: MAYP114033
Trigger mode: 0
Integration Time (sec): 8,000000E-3
Scans to average: 10
Electric dark correction enabled: true
Nonlinearity correction enabled: false
Boxcar width: 3
XAxis mode: Wavelengths
Number of Pixels in Spectrum: 2068
>>>>>Begin Spectral Data<<<<<
199,4	0,005
199,9	0,205
200,4	0,11
200,8	0,098
201,3	0,066
201,8	-0,014
202,2	-0,024
202,7	-0,008
203,2	-0,047
203,6	-0,063
204,1	-0,041
204,6	-0,022
205	-0,023
205,5	-0,003
206	-0,007
206,4	0,01
206,9	0,04
207,4	0,022
207,8	-0,009
208,3	-0,004
208,8	-0,013
209,2	-0,012
209,7	0,011
210,2	-0,009
210,6	-0,002
211,1	-0,002
211,5	0,012
212	0,005
212,5	0,028
212,9	0,021
213,4	0,029
213,9	0,032
214,3	0,03
214,8	0,046
215,3	0,072
215,7	0,065
216,2	0,05
216,7	0,067
217,1	0,068
217,6	0,094
218,1	0,064
218,5	0,053
219	0,032
219,5	0,028
219,9	0,02
220,4	0,021
220,9	0,012
221,3	0,018
221,8	0,018
222,3	0,026
222,7	0,05
223,2	0,057
223,6	0,047
224,1	0,033
224,6	0,052
225	0,068
225,5	0,054
226	0,069
226,4	0,094
226,9	0,072
227,4	0,087
227,8	0,083
228,3	0,068
228,8	0,066
229,2	0,028
229,7	-0,002
230,2	0,012
230,6	0,013
231,1	-0,004
231,5	-0,001
232	0,008
232,5	0,038
232,9	0,035
233,4	0,049
233,9	0,062
234,3	0,063
234,8	0,046
235,3	0,072
235,7	0,047
236,2	0,049
236,7	0,06
237,1	0,039
237,6	0,032
238,1	0,038
238,5	0,027
239	0,015
239,4	0,002
239,9	-0,029
240,4	-0,022
240,8	-0,018
241,3	-0,01
241,8	-0,017
242,2	-0,007
242,7	-0,001
243,2	0,024
243,6	0,041
244,1	0,052
244,6	0,04
245	0,051
245,5	0,076
245,9	0,066
246,4	0,049
246,9	0,031
247,3	0,026
247,8	0,039
248,3	0,029
248,7	0,02
249,2	0,033
249,7	0,036
250,1	0,048
250,6	0,051
251	0,064
251,5	0,075
252	0,081
252,4	0,071
252,9	0,075
253,4	0,072
253,8	0,076
254,3	0,077
254,8	0,076
255,2	0,073
255,7	0,079
256,1	0,078
256,6	0,079
257,1	0,077
257,5	0,076
258	0,074
258,5	0,075
258,9	0,073
259,4	0,071
259,9	0,069
260,3	0,069
260,8	0,069
261,2	0,065
261,7	0,065
262,2	0,062
262,6	0,062
263,1	0,061
263,6	0,061
264	0,059
264,5	0,06
264,9	0,059
265,4	0,061
265,9	0,06
266,3	0,061
266,8	0,061
267,3	0,061
267,7	0,06
268,2	0,06
268,7	0,058
269,1	0,059
269,6	0,058
270	0,058
270,5	0,058
271	0,059
271,4	0,059
271,9	0,059
272,4	0,059
272,8	0,059
273,3	0,057
273,7	0,057
274,2	0,055
274,7	0,054
275,1	0,053
275,6	0,052
276,1	0,051
276,5	0,051
277	0,051
277,4	0,051
277,9	0,052
278,4	0,052
278,8	0,052
279,3	0,053
279,8	0,053
280,2	0,053
280,7	0,052
281,1	0,052
281,6	0,052
282,1	0,052
282,5	0,052
283	0,052
283,4	0,051
283,9	0,051
284,4	0,049
284,8	0,049
285,3	0,048
285,8	0,047
286,2	0,047
286,7	0,047
287,1	0,047
287,6	0,047
288,1	0,047
288,5	0,048
289	0,048
289,5	0,048
289,9	0,047
290,4	0,046
290,8	0,045
291,3	0,045
291,8	0,045
292,2	0,044
292,7	0,044
293,1	0,044
293,6	0,045
294,1	0,045
294,5	0,045
295	0,046
295,5	0,046
295,9	0,046
296,4	0,045
296,8	0,044
297,3	0,044
297,8	0,044
298,2	0,043
298,7	0,044
299,1	0,044
299,6	0,043
300,1	0,044
300,5	0,045
301	0,045
301,5	0,044
301,9	0,044
302,4	0,044
302,8	0,044
303,3	0,043
303,8	0,043
304,2	0,043
304,7	0,042
305,1	0,042
305,6	0,043
306,1	0,043
306,5	0,043
307	0,042
307,4	0,042
307,9	0,042
308,4	0,042
308,8	0,042
309,3	0,042
309,8	0,042
310,2	0,041
310,7	0,041
311,1	0,041
311,6	0,041
312,1	0,042
312,5	0,042
313	0,042
313,4	0,041
313,9	0,041
314,4	0,041
314,8	0,041
315,3	0,04
315,7	0,04
316,2	0,041
316,7	0,041
317,1	0,041
317,6	0,041
318	0,04
318,5	0,04
319	0,041
319,4	0,04
319,9	0,04
320,3	0,04
320,8	0,041
321,3	0,041
321,7	0,041
322,2	0,04
322,6	0,04
323,1	0,041
323,6	0,04
324	0,04
324,5	0,04
324,9	0,04
325,4	0,04
325,9	0,04
326,3	0,04
326,8	0,04
327,2	0,041
327,7	0,041
328,2	0,041
328,6	0,041
329,1	0,041
329,5	0,04
330	0,04
330,5	0,039
330,9	0,039
331,4	0,038
331,8	0,039
332,3	0,039
332,8	0,039
333,2	0,039
333,7	0,04
334,1	0,04
334,6	0,041
335,1	0,04
335,5	0,04
336	0,04
336,4	0,04
336,9	0,039
337,4	0,039
337,8	0,039
338,3	0,039
338,7	0,039
339,2	0,039
339,7	0,039
340,1	0,039
340,6	0,039
341	0,04
341,5	0,04
342	0,041
342,4	0,041
342,9	0,041
343,3	0,04
343,8	0,04
344,2	0,04
344,7	0,04
345,2	0,039
345,6	0,04
346,1	0,04
346,5	0,041
347	0,042
347,5	0,042
347,9	0,042
348,4	0,041
348,8	0,04
349,3	0,04
349,8	0,04
350,2	0,04
350,7	0,04
351,1	0,041
351,6	0,042
352	0,042
352,5	0,042
353	0,041
353,4	0,042
353,9	0,042
354,3	0,042
354,8	0,042
355,3	0,042
355,7	0,042
356,2	0,042
356,6	0,042
357,1	0,043
357,5	0,042
358	0,042
358,5	0,043
358,9	0,043
359,4	0,043
359,8	0,043
360,3	0,042
360,8	0,042
361,2	0,042
361,7	0,042
362,1	0,041
362,6	0,041
363	0,042
363,5	0,043
364	0,043
364,4	0,043
364,9	0,043
365,3	0,043
365,8	0,043
366,3	0,042
366,7	0,042
367,2	0,041
367,6	0,041
368,1	0,041
368,5	0,041
369	0,041
369,5	0,041
369,9	0,041
370,4	0,042
370,8	0,043
371,3	0,043
371,7	0,042
372,2	0,042
372,7	0,043
373,1	0,042
373,6	0,042
374	0,041
374,5	0,041
374,9	0,041
375,4	0,04
375,9	0,041
376,3	0,04
376,8	0,041
377,2	0,041
377,7	0,042
378,2	0,042
378,6	0,042
379,1	0,042
379,5	0,043
380	0,042
380,4	0,042
380,9	0,042
381,4	0,042
381,8	0,042
382,3	0,041
382,7	0,042
383,2	0,042
383,6	0,043
384,1	0,043
384,6	0,043
385	0,043
385,5	0,044
385,9	0,043
386,4	0,044
386,8	0,044
387,3	0,044
387,7	0,044
388,2	0,044
388,7	0,043
389,1	0,044
389,6	0,044
390	0,044
390,5	0,044
390,9	0,044
391,4	0,044
391,9	0,044
392,3	0,043
392,8	0,043
393,2	0,043
393,7	0,043
394,1	0,044
394,6	0,044
395,1	0,044
395,5	0,044
396	0,043
396,4	0,043
396,9	0,043
397,3	0,042
397,8	0,043
398,2	0,043
398,7	0,043
399,2	0,043
399,6	0,043
400,1	0,043
400,5	0,044
401	0,044
401,4	0,044
401,9	0,043
402,4	0,044
402,8	0,045
403,3	0,044
403,7	0,044
404,2	0,045
404,6	0,045
405,1	0,045
405,5	0,044
406	0,044
406,5	0,044
406,9	0,043
407,4	0,043
407,8	0,043
408,3	0,043
408,7	0,044
409,2	0,043
409,6	0,043
410,1	0,043
410,6	0,043
411	0,044
411,5	0,044
411,9	0,044
412,4	0,045
412,8	0,046
413,3	0,046
413,7	0,046
414,2	0,046
414,7	0,046
415,1	0,047
415,6	0,046
416	0,045
416,5	0,045
416,9	0,045
417,4	0,045
417,8	0,044
418,3	0,044
418,8	0,044
419,2	0,045
419,7	0,045
420,1	0,045
420,6	0,045
421	0,045
421,5	0,045
421,9	0,045
422,4	0,045
422,8	0,045
423,3	0,043
423,8	0,043
424,2	0,043
424,7	0,044
425,1	0,044
425,6	0,044
426	0,045
426,5	0,045
426,9	0,046
427,4	0,046
427,9	0,045
428,3	0,045
428,8	0,045
429,2	0,045
429,7	0,045
430,1	0,044
430,6	0,044
431	0,044
431,5	0,044
431,9	0,043
432,4	0,043
432,8	0,042
433,3	0,042
433,8	0,042
434,2	0,042
434,7	0,042
435,1	0,042
435,6	0,043
436	0,044
436,5	0,044
436,9	0,044
437,4	0,044
437,8	0,044
438,3	0,044
438,8	0,044
439,2	0,044
439,7	0,044
440,1	0,043
440,6	0,044
441	0,044
441,5	0,044
441,9	0,043
442,4	0,043
442,8	0,043
443,3	0,043
443,7	0,043
444,2	0,043
444,7	0,043
445,1	0,043
445,6	0,044
446	0,044
446,5	0,044
446,9	0,043
447,4	0,044
447,8	0,044
448,3	0,044
448,7	0,043
449,2	0,044
449,6	0,044
450,1	0,045
450,6	0,045
451	0,046
451,5	0,046
451,9	0,047
452,4	0,046
452,8	0,046
453,3	0,045
453,7	0,045
454,2	0,044
454,6	0,044
455,1	0,044
455,5	0,045
456	0,045
456,4	0,045
456,9	0,046
457,3	0,046
457,8	0,046
458,3	0,046
458,7	0,047
459,2	0,047
459,6	0,047
460,1	0,047
460,5	0,048
461	0,048
461,4	0,048
461,9	0,048
462,3	0,048
462,8	0,047
463,2	0,047
463,7	0,047
464,1	0,047
464,6	0,047
465	0,047
465,5	0,047
466	0,047
466,4	0,047
466,9	0,047
467,3	0,047
467,8	0,046
468,2	0,047
468,7	0,048
469,1	0,048
469,6	0,048
470	0,049
470,5	0,049
470,9	0,049
471,4	0,049
471,8	0,049
472,3	0,049
472,7	0,049
473,2	0,049
473,6	0,048
474,1	0,049
474,5	0,049
475	0,049
475,4	0,049
475,9	0,048
476,4	0,049
476,8	0,049
477,3	0,05
477,7	0,05
478,2	0,05
478,6	0,05
479,1	0,05
479,5	0,049
480	0,049
480,4	0,049
480,9	0,049
481,3	0,048
481,8	0,049
482,2	0,05
482,7	0,051
483,1	0,051
483,6	0,051
484	0,051
484,5	0,051
484,9	0,051
485,4	0,052
485,8	0,052
486,3	0,052
486,7	0,053
487,2	0,053
487,6	0,054
488,1	0,054
488,5	0,054
489	0,054
489,4	0,053
489,9	0,053
490,4	0,054
490,8	0,054
491,3	0,053
491,7	0,054
492,2	0,055
492,6	0,055
493,1	0,055
493,5	0,055
494	0,055
494,4	0,056
494,9	0,055
495,3	0,055
495,8	0,055
496,2	0,056
496,7	0,057
497,1	0,058
497,6	0,057
498	0,057
498,5	0,057
498,9	0,057
499,4	0,056
499,8	0,056
500,3	0,056
500,7	0,056
501,2	0,056
501,6	0,057
502,1	0,057
502,5	0,058
503	0,058
503,4	0,058
503,9	0,058
504,3	0,059
504,8	0,058
505,2	0,059
505,7	0,059
506,1	0,059
506,6	0,059
507	0,059
507,5	0,059
507,9	0,06
508,4	0,059
508,8	0,059
509,3	0,06
509,7	0,06
510,2	0,06
510,6	0,059
511,1	0,059
511,5	0,059
512	0,059
512,4	0,059
512,9	0,059
513,3	0,059
513,8	0,059
514,2	0,06
514,7	0,061
515,1	0,061
515,6	0,06
516	0,061
516,5	0,06
516,9	0,061
517,4	0,061
517,8	0,061
518,3	0,061
518,7	0,062
519,2	0,062
519,6	0,062
520,1	0,062
520,5	0,063
521	0,063
521,4	0,064
521,9	0,064
522,3	0,064
522,8	0,063
523,2	0,063
523,7	0,062
524,1	0,062
524,6	0,061
525	0,06
525,5	0,06
525,9	0,06
526,4	0,06
526,8	0,062
527,3	0,063
527,7	0,063
528,2	0,063
528,6	0,063
529,1	0,063
529,5	0,063
530	0,062
530,4	0,062
530,9	0,062
531,3	0,062
531,8	0,062
532,2	0,062
532,6	0,062
533,1	0,062
533,5	0,061
534	0,062
534,4	0,062
534,9	0,062
535,3	0,061
535,8	0,061
536,2	0,062
536,7	0,062
537,1	0,062
537,6	0,062
538	0,062
538,5	0,063
538,9	0,062
539,4	0,062
539,8	0,063
540,3	0,063
540,7	0,063
541,2	0,063
541,6	0,063
542,1	0,063
542,5	0,063
543	0,063
543,4	0,063
543,9	0,063
544,3	0,063
544,8	0,064
545,2	0,064
545,7	0,064
546,1	0,064
546,5	0,063
547	0,063
547,4	0,063
547,9	0,063
548,3	0,063
548,8	0,062
549,2	0,062
549,7	0,063
550,1	0,063
550,6	0,063
551	0,062
551,5	0,062
551,9	0,062
552,4	0,062
552,8	0,062
553,3	0,062
553,7	0,062
554,2	0,062
554,6	0,062
555,1	0,062
555,5	0,063
555,9	0,063
556,4	0,063
556,8	0,063
557,3	0,062
557,7	0,062
558,2	0,063
558,6	0,062
559,1	0,061
559,5	0,061
560	0,061
560,4	0,061
560,9	0,061
561,3	0,061
561,8	0,061
562,2	0,061
562,7	0,061
563,1	0,06
563,6	0,06
564	0,059
564,4	0,059
564,9	0,06
565,3	0,06
565,8	0,059
566,2	0,059
566,7	0,059
567,1	0,059
567,6	0,058
568	0,058
568,5	0,058
568,9	0,058
569,4	0,058
569,8	0,058
570,3	0,058
570,7	0,059
571,1	0,058
571,6	0,058
572	0,058
572,5	0,058
572,9	0,059
573,4	0,059
573,8	0,058
574,3	0,058
574,7	0,058
575,2	0,058
575,6	0,058
576,1	0,058
576,5	0,058
576,9	0,058
577,4	0,058
577,8	0,058
578,3	0,057
578,7	0,057
579,2	0,057
579,6	0,057
580,1	0,057
580,5	0,056
581	0,056
581,4	0,056
581,9	0,056
582,3	0,056
582,7	0,055
583,2	0,055
583,6	0,055
584,1	0,055
584,5	0,055
585	0,055
585,4	0,054
585,9	0,054
586,3	0,054
586,8	0,054
587,2	0,054
587,6	0,054
588,1	0,053
588,5	0,053
589	0,053
589,4	0,053
589,9	0,053
590,3	0,053
590,8	0,054
591,2	0,054
591,7	0,054
592,1	0,054
592,5	0,053
593	0,053
593,4	0,053
593,9	0,053
594,3	0,052
594,8	0,052
595,2	0,052
595,7	0,051
596,1	0,051
596,6	0,051
597	0,051
597,4	0,051
597,9	0,051
598,3	0,051
598,8	0,052
599,2	0,052
599,7	0,051
600,1	0,051
600,6	0,051
601	0,05
601,4	0,05
601,9	0,049
602,3	0,049
602,8	0,049
603,2	0,049
603,7	0,049
604,1	0,049
604,6	0,05
605	0,05
605,4	0,05
605,9	0,05
606,3	0,05
606,8	0,05
607,2	0,05
607,7	0,049
608,1	0,049
608,6	0,048
609	0,048
609,4	0,048
609,9	0,047
610,3	0,047
610,8	0,047
611,2	0,047
611,7	0,047
612,1	0,047
612,6	0,047
613	0,047
613,4	0,047
613,9	0,047
614,3	0,047
614,8	0,047
615,2	0,046
615,7	0,046
616,1	0,046
616,6	0,045
617	0,045
617,4	0,044
617,9	0,044
618,3	0,044
618,8	0,044
619,2	0,044
619,7	0,045
620,1	0,045
620,5	0,045
621	0,044
621,4	0,044
621,9	0,044
622,3	0,044
622,8	0,044
623,2	0,043
623,6	0,043
624,1	0,043
624,5	0,043
625	0,043
625,4	0,042
625,9	0,043
626,3	0,043
626,8	0,043
627,2	0,043
627,6	0,043
628,1	0,043
628,5	0,042
629	0,042
629,4	0,041
629,9	0,041
630,3	0,04
630,7	0,04
631,2	0,04
631,6	0,04
632,1	0,04
632,5	0,04
633	0,039
633,4	0,039
633,8	0,039
634,3	0,039
634,7	0,039
635,2	0,039
635,6	0,039
636,1	0,04
636,5	0,04
636,9	0,04
637,4	0,04
637,8	0,039
638,3	0,039
638,7	0,038
639,2	0,038
639,6	0,038
640	0,038
640,5	0,038
640,9	0,038
641,4	0,038
641,8	0,038
642,2	0,037
642,7	0,037
643,1	0,037
643,6	0,037
644	0,037
644,5	0,037
644,9	0,037
645,3	0,037
645,8	0,037
646,2	0,036
646,7	0,036
647,1	0,036
647,6	0,036
648	0,036
648,4	0,035
648,9	0,035
649,3	0,035
649,8	0,035
650,2	0,035
650,6	0,035
651,1	0,034
651,5	0,034
652	0,034
652,4	0,035
652,9	0,034
653,3	0,034
653,7	0,034
654,2	0,033
654,6	0,032
655,1	0,032
655,5	0,021
655,9	0,024
656,4	0,024
656,8	0,024
657,3	0,024
657,7	0,023
658,2	0,021
658,6	0,034
659	0,033
659,5	0,033
659,9	0,032
660,4	0,032
660,8	0,032
661,2	0,032
661,7	0,032
662,1	0,032
662,6	0,032
663	0,032
663,4	0,032
663,9	0,031
664,3	0,031
664,8	0,031
665,2	0,03
665,6	0,03
666,1	0,031
666,5	0,031
667	0,031
667,4	0,031
667,9	0,03
668,3	0,03
668,7	0,03
669,2	0,029
669,6	0,03
670,1	0,029
670,5	0,029
670,9	0,029
671,4	0,029
671,8	0,029
672,3	0,029
672,7	0,029
673,1	0,029
673,6	0,029
674	0,028
674,5	0,028
674,9	0,028
675,3	0,028
675,8	0,028
676,2	0,028
676,7	0,028
677,1	0,029
677,5	0,029
678	0,029
678,4	0,029
678,9	0,029
679,3	0,029
679,7	0,029
680,2	0,028
680,6	0,028
681,1	0,027
681,5	0,027
681,9	0,027
682,4	0,027
682,8	0,027
683,3	0,027
683,7	0,027
684,1	0,027
684,6	0,026
685	0,027
685,5	0,026
685,9	0,026
686,3	0,026
686,8	0,026
687,2	0,026
687,7	0,026
688,1	0,026
688,5	0,027
689	0,026
689,4	0,027
689,9	0,027
690,3	0,026
690,7	0,026
691,2	0,026
691,6	0,026
692	0,026
692,5	0,025
692,9	0,025
693,4	0,026
693,8	0,026
694,2	0,025
694,7	0,025
695,1	0,025
695,6	0,025
696	0,024
696,4	0,024
696,9	0,024
697,3	0,024
697,8	0,024
698,2	0,024
698,6	0,024
699,1	0,023
699,5	0,023
699,9	0,023
700,4	0,022
700,8	0,022
701,3	0,022
701,7	0,022
702,1	0,023
702,6	0,022
703	0,022
703,5	0,022
703,9	0,023
704,3	0,022
704,8	0,022
705,2	0,022
705,6	0,022
706,1	0,022
706,5	0,022
707	0,022
707,4	0,022
707,8	0,022
708,3	0,022
708,7	0,022
709,2	0,021
709,6	0,022
710	0,022
710,5	0,021
710,9	0,021
711,3	0,022
711,8	0,022
712,2	0,022
712,7	0,022
713,1	0,022
713,5	0,022
714	0,022
714,4	0,022
714,8	0,021
715,3	0,021
715,7	0,021
716,2	0,021
716,6	0,021
717	0,021
717,5	0,021
717,9	0,021
718,3	0,021
718,8	0,021
719,2	0,021
719,7	0,021
720,1	0,022
720,5	0,021
721	0,021
721,4	0,021
721,8	0,021
722,3	0,021
722,7	0,021
723,2	0,02
723,6	0,02
724	0,019
724,5	0,019
724,9	0,02
725,3	0,02
725,8	0,019
726,2	0,019
726,7	0,019
727,1	0,019
727,5	0,019
728	0,019
728,4	0,019
728,8	0,019
729,3	0,019
729,7	0,019
730,1	0,02
730,6	0,02
731	0,02
731,5	0,02
731,9	0,02
732,3	0,02
732,8	0,019
733,2	0,019
733,6	0,019
734,1	0,019
734,5	0,019
734,9	0,019
735,4	0,019
735,8	0,019
736,3	0,019
736,7	0,019
737,1	0,019
737,6	0,019
738	0,019
738,4	0,019
738,9	0,019
739,3	0,019
739,7	0,018
740,2	0,018
740,6	0,018
741,1	0,018
741,5	0,018
741,9	0,018
742,4	0,018
742,8	0,017
743,2	0,017
743,7	0,017
744,1	0,018
744,5	0,018
745	0,017
745,4	0,017
745,8	0,017
746,3	0,017
746,7	0,018
747,2	0,017
747,6	0,017
748	0,017
748,5	0,017
748,9	0,016
749,3	0,017
749,8	0,017
750,2	0,017
750,6	0,017
751,1	0,017
751,5	0,017
751,9	0,017
752,4	0,017
752,8	0,017
753,3	0,017
753,7	0,017
754,1	0,017
754,6	0,016
755	0,016
755,4	0,016
755,9	0,016
756,3	0,016
756,7	0,016
757,2	0,016
757,6	0,016
758	0,016
758,5	0,016
758,9	0,016
759,3	0,016
759,8	0,017
760,2	0,017
760,6	0,017
761,1	0,017
761,5	0,016
761,9	0,017
762,4	0,017
762,8	0,017
763,3	0,017
763,7	0,017
764,1	0,017
764,6	0,016
765	0,016
765,4	0,016
765,9	0,015
766,3	0,015
766,7	0,015
767,2	0,015
767,6	0,015
768	0,015
768,5	0,015
768,9	0,015
769,3	0,015
769,8	0,014
770,2	0,014
770,6	0,014
771,1	0,014
771,5	0,014
771,9	0,015
772,4	0,014
772,8	0,015
773,2	0,015
773,7	0,015
774,1	0,015
774,5	0,015
775	0,015
775,4	0,015
775,8	0,015
776,3	0,015
776,7	0,015
777,1	0,015
777,6	0,016
778	0,015
778,4	0,015
778,9	0,015
779,3	0,014
779,7	0,015
780,2	0,015
780,6	0,015
781	0,015
781,5	0,015
781,9	0,015
782,3	0,015
782,8	0,015
783,2	0,014
783,6	0,015
784,1	0,015
784,5	0,015
784,9	0,015
785,4	0,015
785,8	0,014
786,2	0,015
786,7	0,015
787,1	0,014
787,5	0,014
788	0,014
788,4	0,014
788,8	0,014
789,3	0,014
789,7	0,014
790,1	0,014
790,6	0,014
791	0,014
791,4	0,014
791,9	0,013
792,3	0,014
792,7	0,014
793,2	0,014
793,6	0,014
794	0,014
794,5	0,014
794,9	0,014
795,3	0,014
795,8	0,014
796,2	0,014
796,6	0,014
797,1	0,013
797,5	0,014
797,9	0,014
798,4	0,014
798,8	0,014
799,2	0,014
799,7	0,014
800,1	0,014
800,5	0,013
801	0,013
801,4	0,013
801,8	0,013
802,2	0,013
802,7	0,013
803,1	0,013
803,5	0,013
804	0,013
804,4	0,013
804,8	0,013
805,3	0,013
805,7	0,013
806,1	0,013
806,6	0,013
807	0,013
807,4	0,013
807,9	0,013
808,3	0,013
808,7	0,013
809,2	0,013
809,6	0,013
810	0,013
810,4	0,013
810,9	0,013
811,3	0,013
811,7	0,013
812,2	0,013
812,6	0,013
813	0,012
813,5	0,012
813,9	0,012
814,3	0,012
814,8	0,013
815,2	0,013
815,6	0,014
816,1	0,014
816,5	0,014
816,9	0,014
817,3	0,014
817,8	0,013
818,2	0,013
818,6	0,013
819,1	0,013
819,5	0,013
819,9	0,013
820,4	0,013
820,8	0,014
821,2	0,013
821,7	0,013
822,1	0,014
822,5	0,014
822,9	0,014
823,4	0,014
823,8	0,013
824,2	0,013
824,7	0,012
825,1	0,012
825,5	0,012
826	0,013
826,4	0,013
826,8	0,013
827,3	0,013
827,7	0,014
828,1	0,014
828,5	0,013
829	0,013
829,4	0,013
829,8	0,013
830,3	0,013
830,7	0,013
831,1	0,013
831,6	0,013
832	0,013
832,4	0,013
832,8	0,013
833,3	0,013
833,7	0,013
834,1	0,013
834,6	0,013
835	0,013
835,4	0,013
835,8	0,013
836,3	0,014
836,7	0,014
837,1	0,013
837,6	0,013
838	0,013
838,4	0,013
838,9	0,013
839,3	0,012
839,7	0,012
840,1	0,012
840,6	0,012
841	0,012
841,4	0,012
841,9	0,012
842,3	0,012
842,7	0,012
843,1	0,012
843,6	0,012
844	0,013
844,4	0,013
844,9	0,013
845,3	0,013
845,7	0,013
846,2	0,013
846,6	0,013
847	0,013
847,4	0,013
847,9	0,013
848,3	0,012
848,7	0,012
849,2	0,012
849,6	0,012
850	0,012
850,4	0,012
850,9	0,012
851,3	0,012
851,7	0,012
852,2	0,012
852,6	0,012
853	0,012
853,4	0,011
853,9	0,012
854,3	0,012
854,7	0,012
855,2	0,012
855,6	0,013
856	0,012
856,4	0,012
856,9	0,012
857,3	0,012
857,7	0,011
858,2	0,011
858,6	0,011
859	0,011
859,4	0,011
859,9	0,012
860,3	0,012
860,7	0,012
861,1	0,012
861,6	0,012
862	0,012
862,4	0,012
862,9	0,012
863,3	0,012
863,7	0,012
864,1	0,012
864,6	0,012
865	0,012
865,4	0,012
865,9	0,011
866,3	0,011
866,7	0,011
867,1	0,011
867,6	0,011
868	0,012
868,4	0,012
868,8	0,012
869,3	0,012
869,7	0,012
870,1	0,011
870,6	0,011
871	0,011
871,4	0,011
871,8	0,011
872,3	0,011
872,7	0,011
873,1	0,011
873,5	0,011
874	0,011
874,4	0,011
874,8	0,011
875,3	0,011
875,7	0,012
876,1	0,012
876,5	0,012
877	0,012
877,4	0,012
877,8	0,012
878,2	0,011
878,7	0,012
879,1	0,011
879,5	0,011
879,9	0,011
880,4	0,011
880,8	0,011
881,2	0,011
881,7	0,011
882,1	0,011
882,5	0,011
882,9	0,011
883,4	0,011
883,8	0,011
884,2	0,012
884,6	0,012
885,1	0,012
885,5	0,011
885,9	0,011
886,3	0,011
886,8	0,011
887,2	0,011
887,6	0,01
888	0,01
888,5	0,01
888,9	0,01
889,3	0,01
889,8	0,01
890,2	0,009
890,6	0,01
891	0,01
891,5	0,01
891,9	0,01
892,3	0,01
892,7	0,011
893,2	0,011
893,6	0,011
894	0,011
894,4	0,011
894,9	0,011
895,3	0,011
895,7	0,011
896,1	0,011
896,6	0,011
897	0,011
897,4	0,01
897,8	0,01
898,3	0,01
898,7	0,01
899,1	0,01
899,5	0,01
900	0,01
900,4	0,01
900,8	0,01
901,2	0,01
901,7	0,011
902,1	0,011
902,5	0,011
902,9	0,011
903,4	0,011
903,8	0,011
904,2	0,011
904,6	0,011
905,1	0,011
905,5	0,011
905,9	0,011
906,3	0,011
906,8	0,011
907,2	0,011
907,6	0,011
908	0,011
908,5	0,011
908,9	0,011
909,3	0,011
909,7	0,01
910,2	0,01
910,6	0,01
911	0,01
911,4	0,01
911,9	0,01
912,3	0,01
912,7	0,011
913,1	0,011
913,6	0,011
914	0,011
914,4	0,011
914,8	0,011
915,3	0,01
915,7	0,01
916,1	0,01
916,5	0,01
916,9	0,01
917,4	0,01
917,8	0,01
918,2	0,011
918,6	0,011
919,1	0,011
919,5	0,011
919,9	0,011
920,3	0,011
920,8	0,01
921,2	0,01
921,6	0,01
922	0,01
922,5	0,011
922,9	0,011
923,3	0,011
923,7	0,011
924,2	0,011
924,6	0,011
925	0,012
925,4	0,011
925,8	0,011
926,3	0,012
926,7	0,011
927,1	0,011
927,5	0,011
928	0,011
928,4	0,012
928,8	0,012
929,2	0,012
929,7	0,012
930,1	0,013
930,5	0,013
930,9	0,013
931,3	0,012
931,8	0,012
932,2	0,012
932,6	0,012
933	0,012
933,5	0,012
933,9	0,012
934,3	0,012
934,7	0,012
935,2	0,013
935,6	0,013
936	0,013
936,4	0,013
936,8	0,013
937,3	0,013
937,7	0,013
938,1	0,013
938,5	0,012
939	0,013
939,4	0,013
939,8	0,013
940,2	0,013
940,6	0,012
941,1	0,013
941,5	0,012
941,9	0,012
942,3	0,012
942,8	0,012
943,2	0,012
943,6	0,012
944	0,012
944,4	0,013
944,9	0,013
945,3	0,013
945,7	0,013
946,1	0,014
946,6	0,014
947	0,015
947,4	0,015
947,8	0,015
948,2	0,015
948,7	0,015
949,1	0,015
949,5	0,016
949,9	0,015
950,3	0,015
950,8	0,016
951,2	0,016
951,6	0,016
952	0,015
952,5	0,016
952,9	0,016
953,3	0,016
953,7	0,016
954,1	0,016
954,6	0,017
955	0,017
955,4	0,016
955,8	0,016
956,2	0,017
956,7	0,016
957,1	0,017
957,5	0,017
957,9	0,017
958,3	0,017
958,8	0,017
959,2	0,017
959,6	0,017
960	0,016
960,5	0,015
960,9	0,015
961,3	0,015
961,7	0,016
962,1	0,016
962,6	0,017
963	0,018
963,4	0,018
963,8	0,018
964,2	0,018
964,7	0,018
965,1	0,018
965,5	0,018
965,9	0,017
966,3	0,017
966,8	0,017
967,2	0,017
967,6	0,017
968	0,017
968,4	0,016
968,9	0,016
969,3	0,016
969,7	0,016
970,1	0,016
970,5	0,016
971	0,016
971,4	0,016
971,8	0,015
972,2	0,015
972,6	0,015
973,1	0,016
973,5	0,015
973,9	0,016
974,3	0,016
974,7	0,016
975,2	0,016
975,6	0,016
976	0,015
976,4	0,015
976,8	0,015
977,3	0,014
977,7	0,013
978,1	0,014
978,5	0,014
978,9	0,014
979,4	0,014
979,8	0,014
980,2	0,014
980,6	0,014
981	0,014
981,5	0,014
981,9	0,014
982,3	0,013
982,7	0,013
983,1	0,014
983,6	0,013
984	0,014
984,4	0,013
984,8	0,013
985,2	0,013
985,6	0,013
986,1	0,013
986,5	0,014
986,9	0,013
987,3	0,013
987,7	0,013
988,2	0,013
988,6	0,013
989	0,012
989,4	0,012
989,8	0,012
990,3	0,012
990,7	0,011
991,1	0,011
991,5	0,011
991,9	0,012
992,3	0,012
992,8	0,012
993,2	0,012
993,6	0,012
994	0,013
994,4	0,013
994,9	0,012
995,3	0,011
995,7	0,012
996,1	0,011
996,5	0,011
996,9	0,011
997,4	0,01
997,8	0,01
998,2	0,01
998,6	0,01
999	0,01
999,5	0,01
999,9	0,009
1000,3	0,009
1000,7	0,008
1001,1	0,008
1001,5	0,008
1002	0,007
1002,4	0,008
1002,8	0,008
1003,2	0,009
1003,6	0,008
1004	0,009
1004,5	0,009
1004,9	0,009
1005,3	0,009
1005,7	0,008
1006,1	0,008
1006,6	0,009
1007	0,009
1007,4	0,008
1007,8	0,009
1008,2	0,008
1008,6	0,009
1009,1	0,009
1009,5	0,01
1009,9	0,009
1010,3	0,01
1010,7	0,01
1011,1	0,01
1011,6	0,009
1012	0,009
1012,4	0,008
1012,8	0,008
1013,2	0,008
1013,6	0,008
1014,1	0,008
1014,5	0,008
1014,9	0,008
1015,3	0,008
1015,7	0,008
1016,1	0,008
1016,6	0,009
1017	0,008
1017,4	0,006
1017,8	0,007
1018,2	0,006
1018,6	0,006
1019,1	0,006
1019,5	0,005
1019,9	0,006
1020,3	0,006
1020,7	0,006
1021,1	0,006
1021,6	0,006
1022	0,006
1022,4	0,006
1022,8	0,007
1023,2	0,006
1023,6	0,007
1024,1	0,007
1024,5	0,007
1024,9	0,007
1025,3	0,007
1025,7	0,007
1026,1	0,008
1026,6	0,007
1027	0,007
1027,4	0,007
1027,8	0,007
1028,2	0,006
1028,6	0,006
1029	0,006
1029,5	0,007
1029,9	0,008
1030,3	0,008
1030,7	0,007
1031,1	0,007
1031,5	0,008
1032	0,007
1032,4	0,007
1032,8	0,007
1033,2	0,007
1033,6	0,007
1034	0,007
1034,4	0,007
1034,9	0,007
1035,3	0,006
1035,7	0,006
1036,1	0,007
1036,5	0,007
1036,9	0,007
1037,4	0,008
1037,8	0,008
1038,2	0,009
1038,6	0,008
1039	0,008
1039,4	0,007
1039,8	0,008
1040,3	0,007
1040,7	0,006
1041,1	0,005
1041,5	0,005
1041,9	0,005
1042,3	0,005
1042,7	0,005
1043,2	0,006
1043,6	0,006
1044	0,007
1044,4	0,007
1044,8	0,008
1045,2	0,008
1045,6	0,008
1046,1	0,007
1046,5	0,006
1046,9	0,006
1047,3	0,007
1047,7	0,007
1048,1	0,006
1048,5	0,006
1049	0,007
1049,4	0,007
1049,8	0,006
1050,2	0,005
1050,6	0,005
1051	0,006
1051,4	0,006
1051,9	0,006
1052,3	0,007
1052,7	0,008
1053,1	0,008
1053,5	0,008
1053,9	0,009
1054,3	0,008
1054,8	0,008
1055,2	0,008
1055,6	0,008
1056	0,008
1056,4	0,008
1056,8	0,008
1057,2	0,009
1057,6	0,009
1058,1	0,009
1058,5	0,008
1058,9	0,009
1059,3	0,008
1059,7	0,007
1060,1	0,007
1060,5	0,007
1061	0,007
1061,4	0,008
1061,8	0,007
1062,2	0,009
1062,6	0,009
1063	0,008
1063,4	0,007
1063,8	0,008
1064,3	0,008
1064,7	0,008
1065,1	0,008
1065,5	0,009
1065,9	0,011
1066,3	0,012
1066,7	0,012
1067,1	0,012
1067,6	0,011
1068	0,01
1068,4	0,01
1068,8	0,008
1069,2	0,008
1069,6	0,006
1070	0,006
1070,4	0,007
1070,9	0,007
1071,3	0,007
1071,7	0,009
1072,1	0,007
1072,5	0,009
1072,9	0,009
1073,3	0,008
1073,7	0,009
1074,2	0,008
1074,6	0,007
1075	0,009
1075,4	0,008
1075,8	0,009
1076,2	0,01
1076,6	0,009
1077	0,009
1077,5	0,009
1077,9	0,008
1078,3	0,006
1078,7	0,006
1079,1	0,006
1079,5	0,007
1079,9	0,009
1080,3	0,008
1080,7	0,009
1081,2	0,008
1081,6	0,008
1082	0,007
1082,4	0,008
1082,8	0,007
1083,2	0,008
1083,6	0,006
1084	0,008
1084,5	0,009
1084,9	0,011
1085,3	0,013
1085,7	0,012
1086,1	0,011
1086,5	0,014
1086,9	0,013
1087,3	0,012
1087,7	0,011
1088,2	0,008
1088,6	0,01
1089	0,015
1089,4	0,013
1089,8	0,012
1090,2	0,011
1090,6	0,01
1091	0,011
1091,4	0,01
1091,9	0,006
1092,3	0,01
1092,7	0,014
1093,1	0,012
1093,5	0,013
1093,9	0,016
1094,3	0,013
1094,7	0,01
1095,1	0,011
1095,5	0,006
1096	0,005
1096,4	0,003
1096,8	-0
1097,2	-0,001
1097,6	0,001
1098	-0,003
1098,4	-0,002
1098,8	0,013
1099,2	0,018
1099,6	0,023
1100,1	0,015
1100,5	0,003
1100,9	-0,001
1101,3	-0
1101,7	-0,011
1102,1	-0,013
1102,5	-0,008
1102,9	-0,01
1103,3	0,014
1103,7	0,015
1104,2	0,011
1104,6	0,01
1105	0,012
1105,4	0,004
1105,8	0,013
1106,2	-0,002
1106,6	-0,011
1107	0,037
1107,4	0,057
1107,8	0,106
1108,3	-0
