Data from Absorbance_18-55-32-891.txt Node
Date: Tue Nov 15 18:55:32 MSK 2022
User: vat
Spectrometer: MAYP114033
Trigger mode: 0
Integration Time (sec): 8,000000E-3
Scans to average: 10
Electric dark correction enabled: true
Nonlinearity correction enabled: false
Boxcar width: 3
XAxis mode: Wavelengths
Number of Pixels in Spectrum: 2068
>>>>>Begin Spectral Data<<<<<
199,4	-0
199,9	0,432
200,4	0,2
200,8	0,16
201,3	0,066
201,8	-0,006
202,2	0,011
202,7	0,042
203,2	0,027
203,6	0,029
204,1	0,029
204,6	0,06
205	0,057
205,5	0,06
206	0,044
206,4	0,048
206,9	0,05
207,4	0,058
207,8	0,035
208,3	0,05
208,8	0,051
209,2	0,045
209,7	0,047
210,2	0,037
210,6	0,022
211,1	0,029
211,5	0,024
212	0,033
212,5	0,046
212,9	0,088
213,4	0,106
213,9	0,145
214,3	0,121
214,8	0,127
215,3	0,134
215,7	0,149
216,2	0,124
216,7	0,122
217,1	0,094
217,6	0,108
218,1	0,097
218,5	0,098
219	0,069
219,5	0,069
219,9	0,055
220,4	0,063
220,9	0,074
221,3	0,098
221,8	0,088
222,3	0,103
222,7	0,095
223,2	0,094
223,6	0,099
224,1	0,072
224,6	0,049
225	0,073
225,5	0,042
226	0,064
226,4	0,094
226,9	0,077
227,4	0,107
227,8	0,124
228,3	0,106
228,8	0,13
229,2	0,125
229,7	0,104
230,2	0,118
230,6	0,098
231,1	0,08
231,5	0,086
232	0,088
232,5	0,078
232,9	0,075
233,4	0,096
233,9	0,122
234,3	0,133
234,8	0,113
235,3	0,117
235,7	0,123
236,2	0,106
236,7	0,061
237,1	0,029
237,6	0,019
238,1	0,032
238,5	0,027
239	0,004
239,4	0,03
239,9	0,045
240,4	0,061
240,8	0,059
241,3	0,067
241,8	0,08
242,2	0,081
242,7	0,075
243,2	0,109
243,6	0,11
244,1	0,122
244,6	0,13
245	0,123
245,5	0,153
245,9	0,159
246,4	0,129
246,9	0,136
247,3	0,136
247,8	0,113
248,3	0,108
248,7	0,087
249,2	0,085
249,7	0,084
250,1	0,092
250,6	0,096
251	0,1
251,5	0,113
252	0,127
252,4	0,124
252,9	0,128
253,4	0,13
253,8	0,131
254,3	0,132
254,8	0,137
255,2	0,135
255,7	0,137
256,1	0,138
256,6	0,14
257,1	0,139
257,5	0,139
258	0,138
258,5	0,136
258,9	0,134
259,4	0,132
259,9	0,128
260,3	0,125
260,8	0,124
261,2	0,121
261,7	0,121
262,2	0,118
262,6	0,117
263,1	0,116
263,6	0,115
264	0,113
264,5	0,112
264,9	0,111
265,4	0,112
265,9	0,112
266,3	0,111
266,8	0,111
267,3	0,112
267,7	0,111
268,2	0,111
268,7	0,109
269,1	0,109
269,6	0,109
270	0,109
270,5	0,108
271	0,109
271,4	0,107
271,9	0,107
272,4	0,106
272,8	0,106
273,3	0,105
273,7	0,104
274,2	0,101
274,7	0,101
275,1	0,102
275,6	0,1
276,1	0,1
276,5	0,1
277	0,098
277,4	0,099
277,9	0,099
278,4	0,098
278,8	0,099
279,3	0,099
279,8	0,098
280,2	0,099
280,7	0,1
281,1	0,099
281,6	0,1
282,1	0,099
282,5	0,097
283	0,097
283,4	0,096
283,9	0,095
284,4	0,095
284,8	0,094
285,3	0,093
285,8	0,093
286,2	0,092
286,7	0,091
287,1	0,091
287,6	0,091
288,1	0,09
288,5	0,09
289	0,09
289,5	0,09
289,9	0,09
290,4	0,089
290,8	0,087
291,3	0,088
291,8	0,087
292,2	0,086
292,7	0,086
293,1	0,085
293,6	0,086
294,1	0,086
294,5	0,086
295	0,087
295,5	0,086
295,9	0,086
296,4	0,086
296,8	0,086
297,3	0,087
297,8	0,086
298,2	0,086
298,7	0,087
299,1	0,086
299,6	0,087
300,1	0,086
300,5	0,085
301	0,085
301,5	0,084
301,9	0,084
302,4	0,085
302,8	0,084
303,3	0,084
303,8	0,084
304,2	0,085
304,7	0,084
305,1	0,084
305,6	0,083
306,1	0,083
306,5	0,083
307	0,082
307,4	0,082
307,9	0,082
308,4	0,082
308,8	0,081
309,3	0,081
309,8	0,081
310,2	0,082
310,7	0,081
311,1	0,082
311,6	0,081
312,1	0,081
312,5	0,081
313	0,081
313,4	0,08
313,9	0,079
314,4	0,079
314,8	0,079
315,3	0,078
315,7	0,078
316,2	0,078
316,7	0,078
317,1	0,078
317,6	0,078
318	0,077
318,5	0,077
319	0,077
319,4	0,076
319,9	0,076
320,3	0,076
320,8	0,075
321,3	0,075
321,7	0,075
322,2	0,075
322,6	0,075
323,1	0,075
323,6	0,075
324	0,074
324,5	0,074
324,9	0,074
325,4	0,075
325,9	0,074
326,3	0,073
326,8	0,073
327,2	0,073
327,7	0,073
328,2	0,073
328,6	0,073
329,1	0,073
329,5	0,073
330	0,074
330,5	0,073
330,9	0,072
331,4	0,072
331,8	0,071
332,3	0,071
332,8	0,071
333,2	0,07
333,7	0,071
334,1	0,071
334,6	0,071
335,1	0,073
335,5	0,072
336	0,073
336,4	0,073
336,9	0,073
337,4	0,073
337,8	0,072
338,3	0,071
338,7	0,071
339,2	0,071
339,7	0,071
340,1	0,071
340,6	0,071
341	0,071
341,5	0,072
342	0,072
342,4	0,072
342,9	0,072
343,3	0,071
343,8	0,071
344,2	0,072
344,7	0,07
345,2	0,07
345,6	0,071
346,1	0,072
346,5	0,073
347	0,074
347,5	0,074
347,9	0,074
348,4	0,073
348,8	0,073
349,3	0,072
349,8	0,072
350,2	0,072
350,7	0,072
351,1	0,072
351,6	0,073
352	0,072
352,5	0,073
353	0,072
353,4	0,073
353,9	0,073
354,3	0,073
354,8	0,073
355,3	0,074
355,7	0,074
356,2	0,074
356,6	0,075
357,1	0,075
357,5	0,075
358	0,074
358,5	0,075
358,9	0,074
359,4	0,074
359,8	0,073
360,3	0,072
360,8	0,072
361,2	0,073
361,7	0,073
362,1	0,073
362,6	0,073
363	0,073
363,5	0,074
364	0,074
364,4	0,074
364,9	0,074
365,3	0,074
365,8	0,074
366,3	0,074
366,7	0,073
367,2	0,073
367,6	0,073
368,1	0,073
368,5	0,073
369	0,073
369,5	0,073
369,9	0,074
370,4	0,073
370,8	0,074
371,3	0,074
371,7	0,073
372,2	0,074
372,7	0,074
373,1	0,074
373,6	0,074
374	0,074
374,5	0,073
374,9	0,073
375,4	0,073
375,9	0,073
376,3	0,073
376,8	0,074
377,2	0,074
377,7	0,074
378,2	0,074
378,6	0,074
379,1	0,074
379,5	0,075
380	0,074
380,4	0,074
380,9	0,074
381,4	0,074
381,8	0,073
382,3	0,073
382,7	0,074
383,2	0,074
383,6	0,075
384,1	0,075
384,6	0,075
385	0,075
385,5	0,075
385,9	0,074
386,4	0,075
386,8	0,075
387,3	0,075
387,7	0,075
388,2	0,076
388,7	0,077
389,1	0,078
389,6	0,078
390	0,077
390,5	0,077
390,9	0,076
391,4	0,076
391,9	0,076
392,3	0,076
392,8	0,076
393,2	0,076
393,7	0,076
394,1	0,077
394,6	0,077
395,1	0,076
395,5	0,076
396	0,077
396,4	0,077
396,9	0,077
397,3	0,077
397,8	0,076
398,2	0,077
398,7	0,076
399,2	0,076
399,6	0,076
400,1	0,077
400,5	0,078
401	0,078
401,4	0,077
401,9	0,078
402,4	0,078
402,8	0,078
403,3	0,078
403,7	0,077
404,2	0,078
404,6	0,077
405,1	0,077
405,5	0,077
406	0,076
406,5	0,076
406,9	0,076
407,4	0,076
407,8	0,076
408,3	0,076
408,7	0,076
409,2	0,077
409,6	0,076
410,1	0,077
410,6	0,077
411	0,078
411,5	0,078
411,9	0,078
412,4	0,079
412,8	0,08
413,3	0,079
413,7	0,079
414,2	0,079
414,7	0,079
415,1	0,078
415,6	0,078
416	0,077
416,5	0,077
416,9	0,076
417,4	0,076
417,8	0,076
418,3	0,076
418,8	0,076
419,2	0,077
419,7	0,077
420,1	0,077
420,6	0,077
421	0,077
421,5	0,077
421,9	0,078
422,4	0,077
422,8	0,077
423,3	0,077
423,8	0,077
424,2	0,077
424,7	0,076
425,1	0,076
425,6	0,076
426	0,076
426,5	0,076
426,9	0,077
427,4	0,076
427,9	0,076
428,3	0,077
428,8	0,077
429,2	0,077
429,7	0,077
430,1	0,076
430,6	0,076
431	0,076
431,5	0,076
431,9	0,076
432,4	0,076
432,8	0,075
433,3	0,074
433,8	0,074
434,2	0,074
434,7	0,074
435,1	0,075
435,6	0,075
436	0,076
436,5	0,076
436,9	0,076
437,4	0,076
437,8	0,076
438,3	0,075
438,8	0,075
439,2	0,075
439,7	0,075
440,1	0,075
440,6	0,076
441	0,076
441,5	0,077
441,9	0,077
442,4	0,077
442,8	0,077
443,3	0,076
443,7	0,076
444,2	0,076
444,7	0,076
445,1	0,076
445,6	0,076
446	0,076
446,5	0,076
446,9	0,076
447,4	0,076
447,8	0,076
448,3	0,076
448,7	0,076
449,2	0,077
449,6	0,076
450,1	0,076
450,6	0,076
451	0,077
451,5	0,077
451,9	0,078
452,4	0,077
452,8	0,077
453,3	0,078
453,7	0,077
454,2	0,076
454,6	0,077
455,1	0,076
455,5	0,076
456	0,077
456,4	0,076
456,9	0,077
457,3	0,077
457,8	0,077
458,3	0,078
458,7	0,078
459,2	0,079
459,6	0,079
460,1	0,08
460,5	0,08
461	0,08
461,4	0,08
461,9	0,08
462,3	0,08
462,8	0,08
463,2	0,08
463,7	0,08
464,1	0,081
464,6	0,081
465	0,081
465,5	0,081
466	0,081
466,4	0,081
466,9	0,081
467,3	0,081
467,8	0,081
468,2	0,081
468,7	0,082
469,1	0,083
469,6	0,084
470	0,084
470,5	0,084
470,9	0,084
471,4	0,084
471,8	0,083
472,3	0,083
472,7	0,084
473,2	0,083
473,6	0,083
474,1	0,083
474,5	0,084
475	0,084
475,4	0,085
475,9	0,085
476,4	0,085
476,8	0,086
477,3	0,087
477,7	0,086
478,2	0,086
478,6	0,086
479,1	0,087
479,5	0,086
480	0,086
480,4	0,087
480,9	0,087
481,3	0,087
481,8	0,087
482,2	0,087
482,7	0,088
483,1	0,088
483,6	0,087
484	0,089
484,5	0,089
484,9	0,089
485,4	0,09
485,8	0,09
486,3	0,09
486,7	0,091
487,2	0,091
487,6	0,091
488,1	0,092
488,5	0,092
489	0,092
489,4	0,092
489,9	0,093
490,4	0,093
490,8	0,093
491,3	0,093
491,7	0,093
492,2	0,094
492,6	0,094
493,1	0,094
493,5	0,094
494	0,095
494,4	0,095
494,9	0,094
495,3	0,095
495,8	0,096
496,2	0,096
496,7	0,097
497,1	0,097
497,6	0,098
498	0,1
498,5	0,1
498,9	0,1
499,4	0,1
499,8	0,1
500,3	0,101
500,7	0,101
501,2	0,101
501,6	0,101
502,1	0,101
502,5	0,102
503	0,102
503,4	0,102
503,9	0,102
504,3	0,102
504,8	0,102
505,2	0,103
505,7	0,103
506,1	0,103
506,6	0,103
507	0,103
507,5	0,104
507,9	0,104
508,4	0,104
508,8	0,104
509,3	0,104
509,7	0,105
510,2	0,105
510,6	0,106
511,1	0,106
511,5	0,106
512	0,106
512,4	0,107
512,9	0,107
513,3	0,107
513,8	0,107
514,2	0,108
514,7	0,108
515,1	0,109
515,6	0,109
516	0,109
516,5	0,11
516,9	0,11
517,4	0,11
517,8	0,11
518,3	0,11
518,7	0,111
519,2	0,112
519,6	0,112
520,1	0,113
520,5	0,113
521	0,113
521,4	0,114
521,9	0,114
522,3	0,114
522,8	0,114
523,2	0,114
523,7	0,113
524,1	0,114
524,6	0,113
525	0,112
525,5	0,112
525,9	0,112
526,4	0,111
526,8	0,112
527,3	0,113
527,7	0,113
528,2	0,114
528,6	0,114
529,1	0,114
529,5	0,115
530	0,115
530,4	0,115
530,9	0,114
531,3	0,114
531,8	0,114
532,2	0,114
532,6	0,113
533,1	0,113
533,5	0,113
534	0,114
534,4	0,114
534,9	0,114
535,3	0,114
535,8	0,114
536,2	0,115
536,7	0,115
537,1	0,115
537,6	0,114
538	0,115
538,5	0,115
538,9	0,115
539,4	0,115
539,8	0,115
540,3	0,115
540,7	0,115
541,2	0,115
541,6	0,115
542,1	0,115
542,5	0,115
543	0,114
543,4	0,115
543,9	0,115
544,3	0,115
544,8	0,115
545,2	0,116
545,7	0,116
546,1	0,117
546,5	0,116
547	0,116
547,4	0,116
547,9	0,115
548,3	0,115
548,8	0,115
549,2	0,115
549,7	0,116
550,1	0,116
550,6	0,116
551	0,116
551,5	0,117
551,9	0,116
552,4	0,116
552,8	0,116
553,3	0,116
553,7	0,115
554,2	0,115
554,6	0,115
555,1	0,115
555,5	0,115
555,9	0,115
556,4	0,115
556,8	0,115
557,3	0,115
557,7	0,115
558,2	0,114
558,6	0,114
559,1	0,113
559,5	0,112
560	0,113
560,4	0,113
560,9	0,112
561,3	0,113
561,8	0,112
562,2	0,113
562,7	0,113
563,1	0,112
563,6	0,112
564	0,112
564,4	0,111
564,9	0,112
565,3	0,112
565,8	0,112
566,2	0,112
566,7	0,111
567,1	0,111
567,6	0,11
568	0,109
568,5	0,109
568,9	0,109
569,4	0,109
569,8	0,108
570,3	0,108
570,7	0,109
571,1	0,108
571,6	0,108
572	0,108
572,5	0,108
572,9	0,109
573,4	0,109
573,8	0,109
574,3	0,109
574,7	0,109
575,2	0,109
575,6	0,108
576,1	0,108
576,5	0,108
576,9	0,108
577,4	0,108
577,8	0,107
578,3	0,107
578,7	0,107
579,2	0,106
579,6	0,106
580,1	0,106
580,5	0,105
581	0,105
581,4	0,104
581,9	0,104
582,3	0,104
582,7	0,104
583,2	0,103
583,6	0,103
584,1	0,103
584,5	0,103
585	0,102
585,4	0,103
585,9	0,103
586,3	0,102
586,8	0,102
587,2	0,102
587,6	0,102
588,1	0,102
588,5	0,102
589	0,102
589,4	0,102
589,9	0,102
590,3	0,101
590,8	0,101
591,2	0,101
591,7	0,101
592,1	0,101
592,5	0,101
593	0,101
593,4	0,101
593,9	0,101
594,3	0,1
594,8	0,099
595,2	0,099
595,7	0,099
596,1	0,099
596,6	0,099
597	0,098
597,4	0,098
597,9	0,098
598,3	0,098
598,8	0,098
599,2	0,098
599,7	0,097
600,1	0,097
600,6	0,097
601	0,096
601,4	0,097
601,9	0,096
602,3	0,096
602,8	0,095
603,2	0,095
603,7	0,095
604,1	0,095
604,6	0,095
605	0,095
605,4	0,095
605,9	0,095
606,3	0,095
606,8	0,095
607,2	0,095
607,7	0,094
608,1	0,094
608,6	0,093
609	0,094
609,4	0,093
609,9	0,093
610,3	0,093
610,8	0,093
611,2	0,092
611,7	0,092
612,1	0,091
612,6	0,091
613	0,091
613,4	0,091
613,9	0,091
614,3	0,091
614,8	0,091
615,2	0,091
615,7	0,091
616,1	0,091
616,6	0,09
617	0,09
617,4	0,09
617,9	0,089
618,3	0,089
618,8	0,089
619,2	0,088
619,7	0,088
620,1	0,088
620,5	0,088
621	0,087
621,4	0,087
621,9	0,086
622,3	0,086
622,8	0,086
623,2	0,085
623,6	0,085
624,1	0,085
624,5	0,085
625	0,085
625,4	0,084
625,9	0,085
626,3	0,084
626,8	0,084
627,2	0,084
627,6	0,084
628,1	0,084
628,5	0,084
629	0,083
629,4	0,083
629,9	0,083
630,3	0,082
630,7	0,082
631,2	0,082
631,6	0,082
632,1	0,082
632,5	0,082
633	0,081
633,4	0,08
633,8	0,08
634,3	0,079
634,7	0,078
635,2	0,078
635,6	0,078
636,1	0,078
636,5	0,078
636,9	0,078
637,4	0,078
637,8	0,078
638,3	0,077
638,7	0,077
639,2	0,077
639,6	0,077
640	0,076
640,5	0,076
640,9	0,076
641,4	0,076
641,8	0,075
642,2	0,075
642,7	0,075
643,1	0,074
643,6	0,074
644	0,074
644,5	0,074
644,9	0,073
645,3	0,072
645,8	0,071
646,2	0,072
646,7	0,071
647,1	0,071
647,6	0,071
648	0,071
648,4	0,071
648,9	0,071
649,3	0,07
649,8	0,07
650,2	0,069
650,6	0,069
651,1	0,068
651,5	0,068
652	0,067
652,4	0,067
652,9	0,068
653,3	0,067
653,7	0,067
654,2	0,066
654,6	0,065
655,1	0,064
655,5	0,043
655,9	0,047
656,4	0,048
656,8	0,048
657,3	0,048
657,7	0,046
658,2	0,04
658,6	0,068
659	0,066
659,5	0,064
659,9	0,064
660,4	0,064
660,8	0,064
661,2	0,064
661,7	0,064
662,1	0,063
662,6	0,063
663	0,063
663,4	0,062
663,9	0,062
664,3	0,061
664,8	0,061
665,2	0,061
665,6	0,061
666,1	0,061
666,5	0,061
667	0,061
667,4	0,06
667,9	0,06
668,3	0,06
668,7	0,06
669,2	0,059
669,6	0,059
670,1	0,059
670,5	0,059
670,9	0,058
671,4	0,058
671,8	0,058
672,3	0,058
672,7	0,057
673,1	0,057
673,6	0,057
674	0,056
674,5	0,056
674,9	0,056
675,3	0,056
675,8	0,056
676,2	0,056
676,7	0,056
677,1	0,056
677,5	0,056
678	0,055
678,4	0,055
678,9	0,055
679,3	0,054
679,7	0,054
680,2	0,053
680,6	0,053
681,1	0,053
681,5	0,053
681,9	0,052
682,4	0,052
682,8	0,052
683,3	0,052
683,7	0,052
684,1	0,052
684,6	0,052
685	0,052
685,5	0,052
685,9	0,051
686,3	0,051
686,8	0,051
687,2	0,051
687,7	0,05
688,1	0,05
688,5	0,05
689	0,05
689,4	0,051
689,9	0,05
690,3	0,05
690,7	0,05
691,2	0,05
691,6	0,05
692	0,049
692,5	0,049
692,9	0,048
693,4	0,048
693,8	0,048
694,2	0,048
694,7	0,047
695,1	0,047
695,6	0,047
696	0,047
696,4	0,046
696,9	0,046
697,3	0,046
697,8	0,047
698,2	0,047
698,6	0,046
699,1	0,046
699,5	0,046
699,9	0,046
700,4	0,045
700,8	0,045
701,3	0,045
701,7	0,045
702,1	0,045
702,6	0,044
703	0,044
703,5	0,044
703,9	0,044
704,3	0,044
704,8	0,044
705,2	0,044
705,6	0,044
706,1	0,043
706,5	0,043
707	0,043
707,4	0,043
707,8	0,043
708,3	0,043
708,7	0,043
709,2	0,043
709,6	0,043
710	0,043
710,5	0,043
710,9	0,043
711,3	0,042
711,8	0,042
712,2	0,042
712,7	0,042
713,1	0,042
713,5	0,042
714	0,042
714,4	0,042
714,8	0,042
715,3	0,042
715,7	0,041
716,2	0,041
716,6	0,041
717	0,04
717,5	0,04
717,9	0,04
718,3	0,04
718,8	0,04
719,2	0,041
719,7	0,04
720,1	0,041
720,5	0,041
721	0,04
721,4	0,04
721,8	0,04
722,3	0,039
722,7	0,039
723,2	0,039
723,6	0,039
724	0,038
724,5	0,038
724,9	0,038
725,3	0,038
725,8	0,038
726,2	0,038
726,7	0,038
727,1	0,038
727,5	0,037
728	0,037
728,4	0,037
728,8	0,037
729,3	0,037
729,7	0,037
730,1	0,037
730,6	0,038
731	0,038
731,5	0,037
731,9	0,037
732,3	0,038
732,8	0,037
733,2	0,037
733,6	0,037
734,1	0,037
734,5	0,037
734,9	0,037
735,4	0,036
735,8	0,036
736,3	0,036
736,7	0,036
737,1	0,036
737,6	0,036
738	0,036
738,4	0,036
738,9	0,036
739,3	0,036
739,7	0,035
740,2	0,035
740,6	0,035
741,1	0,034
741,5	0,034
741,9	0,034
742,4	0,034
742,8	0,034
743,2	0,034
743,7	0,034
744,1	0,034
744,5	0,034
745	0,034
745,4	0,034
745,8	0,034
746,3	0,033
746,7	0,033
747,2	0,033
747,6	0,032
748	0,032
748,5	0,032
748,9	0,031
749,3	0,032
749,8	0,033
750,2	0,032
750,6	0,033
751,1	0,032
751,5	0,032
751,9	0,033
752,4	0,032
752,8	0,032
753,3	0,032
753,7	0,032
754,1	0,032
754,6	0,032
755	0,032
755,4	0,032
755,9	0,031
756,3	0,031
756,7	0,031
757,2	0,031
757,6	0,031
758	0,031
758,5	0,031
758,9	0,031
759,3	0,031
759,8	0,031
760,2	0,031
760,6	0,031
761,1	0,031
761,5	0,031
761,9	0,031
762,4	0,031
762,8	0,03
763,3	0,03
763,7	0,03
764,1	0,03
764,6	0,03
765	0,03
765,4	0,029
765,9	0,029
766,3	0,029
766,7	0,029
767,2	0,029
767,6	0,029
768	0,029
768,5	0,028
768,9	0,029
769,3	0,028
769,8	0,028
770,2	0,028
770,6	0,028
771,1	0,028
771,5	0,028
771,9	0,028
772,4	0,028
772,8	0,028
773,2	0,028
773,7	0,028
774,1	0,028
774,5	0,028
775	0,028
775,4	0,028
775,8	0,028
776,3	0,028
776,7	0,028
777,1	0,027
777,6	0,027
778	0,027
778,4	0,027
778,9	0,027
779,3	0,027
779,7	0,027
780,2	0,027
780,6	0,027
781	0,027
781,5	0,027
781,9	0,027
782,3	0,027
782,8	0,027
783,2	0,027
783,6	0,027
784,1	0,027
784,5	0,027
784,9	0,027
785,4	0,027
785,8	0,027
786,2	0,027
786,7	0,027
787,1	0,027
787,5	0,027
788	0,026
788,4	0,026
788,8	0,026
789,3	0,026
789,7	0,025
790,1	0,025
790,6	0,025
791	0,026
791,4	0,026
791,9	0,026
792,3	0,026
792,7	0,026
793,2	0,026
793,6	0,025
794	0,025
794,5	0,025
794,9	0,026
795,3	0,026
795,8	0,026
796,2	0,026
796,6	0,026
797,1	0,026
797,5	0,025
797,9	0,025
798,4	0,026
798,8	0,025
799,2	0,025
799,7	0,025
800,1	0,025
800,5	0,025
801	0,024
801,4	0,024
801,8	0,024
802,2	0,025
802,7	0,025
803,1	0,024
803,5	0,024
804	0,025
804,4	0,025
804,8	0,024
805,3	0,024
805,7	0,024
806,1	0,024
806,6	0,024
807	0,024
807,4	0,024
807,9	0,024
808,3	0,024
808,7	0,024
809,2	0,024
809,6	0,024
810	0,024
810,4	0,024
810,9	0,024
811,3	0,024
811,7	0,024
812,2	0,024
812,6	0,024
813	0,023
813,5	0,023
813,9	0,023
814,3	0,023
814,8	0,024
815,2	0,024
815,6	0,024
816,1	0,024
816,5	0,024
816,9	0,025
817,3	0,024
817,8	0,024
818,2	0,024
818,6	0,024
819,1	0,024
819,5	0,024
819,9	0,023
820,4	0,023
820,8	0,024
821,2	0,023
821,7	0,023
822,1	0,023
822,5	0,023
822,9	0,024
823,4	0,024
823,8	0,023
824,2	0,023
824,7	0,023
825,1	0,023
825,5	0,023
826	0,024
826,4	0,024
826,8	0,024
827,3	0,024
827,7	0,024
828,1	0,023
828,5	0,023
829	0,023
829,4	0,022
829,8	0,022
830,3	0,022
830,7	0,022
831,1	0,022
831,6	0,022
832	0,022
832,4	0,023
832,8	0,023
833,3	0,023
833,7	0,022
834,1	0,022
834,6	0,023
835	0,023
835,4	0,023
835,8	0,023
836,3	0,023
836,7	0,024
837,1	0,024
837,6	0,024
838	0,023
838,4	0,023
838,9	0,023
839,3	0,022
839,7	0,022
840,1	0,022
840,6	0,022
841	0,022
841,4	0,022
841,9	0,022
842,3	0,022
842,7	0,022
843,1	0,022
843,6	0,022
844	0,023
844,4	0,023
844,9	0,023
845,3	0,022
845,7	0,022
846,2	0,022
846,6	0,022
847	0,021
847,4	0,021
847,9	0,022
848,3	0,022
848,7	0,022
849,2	0,022
849,6	0,021
850	0,021
850,4	0,021
850,9	0,021
851,3	0,021
851,7	0,021
852,2	0,021
852,6	0,021
853	0,02
853,4	0,02
853,9	0,02
854,3	0,02
854,7	0,02
855,2	0,02
855,6	0,021
856	0,021
856,4	0,021
856,9	0,021
857,3	0,02
857,7	0,02
858,2	0,02
858,6	0,02
859	0,021
859,4	0,021
859,9	0,021
860,3	0,021
860,7	0,021
861,1	0,021
861,6	0,021
862	0,021
862,4	0,021
862,9	0,021
863,3	0,021
863,7	0,021
864,1	0,021
864,6	0,021
865	0,021
865,4	0,021
865,9	0,021
866,3	0,02
866,7	0,02
867,1	0,02
867,6	0,021
868	0,021
868,4	0,021
868,8	0,02
869,3	0,02
869,7	0,02
870,1	0,019
870,6	0,019
871	0,019
871,4	0,019
871,8	0,02
872,3	0,02
872,7	0,02
873,1	0,02
873,5	0,02
874	0,02
874,4	0,02
874,8	0,019
875,3	0,019
875,7	0,02
876,1	0,02
876,5	0,02
877	0,02
877,4	0,02
877,8	0,02
878,2	0,019
878,7	0,02
879,1	0,019
879,5	0,019
879,9	0,019
880,4	0,019
880,8	0,019
881,2	0,019
881,7	0,019
882,1	0,019
882,5	0,02
882,9	0,02
883,4	0,02
883,8	0,02
884,2	0,02
884,6	0,02
885,1	0,02
885,5	0,02
885,9	0,019
886,3	0,019
886,8	0,019
887,2	0,018
887,6	0,018
888	0,018
888,5	0,018
888,9	0,018
889,3	0,018
889,8	0,018
890,2	0,018
890,6	0,017
891	0,018
891,5	0,018
891,9	0,018
892,3	0,018
892,7	0,019
893,2	0,019
893,6	0,019
894	0,019
894,4	0,019
894,9	0,019
895,3	0,019
895,7	0,019
896,1	0,019
896,6	0,019
897	0,019
897,4	0,018
897,8	0,018
898,3	0,018
898,7	0,018
899,1	0,018
899,5	0,017
900	0,017
900,4	0,018
900,8	0,017
901,2	0,018
901,7	0,018
902,1	0,018
902,5	0,019
902,9	0,019
903,4	0,019
903,8	0,019
904,2	0,018
904,6	0,018
905,1	0,018
905,5	0,018
905,9	0,018
906,3	0,019
906,8	0,019
907,2	0,019
907,6	0,019
908	0,019
908,5	0,019
908,9	0,018
909,3	0,018
909,7	0,018
910,2	0,018
910,6	0,018
911	0,018
911,4	0,018
911,9	0,019
912,3	0,019
912,7	0,019
913,1	0,019
913,6	0,018
914	0,018
914,4	0,018
914,8	0,018
915,3	0,018
915,7	0,018
916,1	0,018
916,5	0,018
916,9	0,018
917,4	0,017
917,8	0,017
918,2	0,018
918,6	0,018
919,1	0,018
919,5	0,018
919,9	0,018
920,3	0,018
920,8	0,018
921,2	0,018
921,6	0,018
922	0,018
922,5	0,019
922,9	0,019
923,3	0,018
923,7	0,018
924,2	0,018
924,6	0,018
925	0,018
925,4	0,018
925,8	0,018
926,3	0,018
926,7	0,018
927,1	0,018
927,5	0,018
928	0,018
928,4	0,018
928,8	0,018
929,2	0,018
929,7	0,019
930,1	0,02
930,5	0,02
930,9	0,02
931,3	0,02
931,8	0,02
932,2	0,019
932,6	0,019
933	0,019
933,5	0,018
933,9	0,018
934,3	0,018
934,7	0,019
935,2	0,02
935,6	0,02
936	0,02
936,4	0,02
936,8	0,021
937,3	0,02
937,7	0,02
938,1	0,019
938,5	0,02
939	0,02
939,4	0,02
939,8	0,02
940,2	0,019
940,6	0,02
941,1	0,02
941,5	0,019
941,9	0,019
942,3	0,018
942,8	0,018
943,2	0,019
943,6	0,019
944	0,02
944,4	0,021
944,9	0,021
945,3	0,021
945,7	0,021
946,1	0,021
946,6	0,021
947	0,022
947,4	0,021
947,8	0,021
948,2	0,021
948,7	0,021
949,1	0,021
949,5	0,022
949,9	0,021
950,3	0,022
950,8	0,022
951,2	0,022
951,6	0,022
952	0,021
952,5	0,021
952,9	0,021
953,3	0,021
953,7	0,021
954,1	0,021
954,6	0,021
955	0,022
955,4	0,022
955,8	0,023
956,2	0,023
956,7	0,023
957,1	0,023
957,5	0,023
957,9	0,023
958,3	0,024
958,8	0,023
959,2	0,023
959,6	0,023
960	0,022
960,5	0,022
960,9	0,023
961,3	0,022
961,7	0,022
962,1	0,023
962,6	0,023
963	0,024
963,4	0,023
963,8	0,023
964,2	0,023
964,7	0,023
965,1	0,023
965,5	0,023
965,9	0,024
966,3	0,024
966,8	0,023
967,2	0,023
967,6	0,023
968	0,023
968,4	0,023
968,9	0,022
969,3	0,022
969,7	0,022
970,1	0,022
970,5	0,022
971	0,021
971,4	0,021
971,8	0,021
972,2	0,022
972,6	0,021
973,1	0,021
973,5	0,021
973,9	0,021
974,3	0,021
974,7	0,021
975,2	0,021
975,6	0,021
976	0,021
976,4	0,021
976,8	0,021
977,3	0,02
977,7	0,02
978,1	0,02
978,5	0,02
978,9	0,02
979,4	0,02
979,8	0,02
980,2	0,021
980,6	0,021
981	0,021
981,5	0,021
981,9	0,021
982,3	0,02
982,7	0,019
983,1	0,02
983,6	0,019
984	0,019
984,4	0,019
984,8	0,018
985,2	0,019
985,6	0,018
986,1	0,017
986,5	0,018
986,9	0,018
987,3	0,018
987,7	0,018
988,2	0,018
988,6	0,017
989	0,017
989,4	0,017
989,8	0,017
990,3	0,017
990,7	0,016
991,1	0,017
991,5	0,017
991,9	0,018
992,3	0,018
992,8	0,017
993,2	0,017
993,6	0,017
994	0,017
994,4	0,017
994,9	0,016
995,3	0,015
995,7	0,015
996,1	0,016
996,5	0,016
996,9	0,016
997,4	0,016
997,8	0,017
998,2	0,018
998,6	0,017
999	0,017
999,5	0,017
999,9	0,017
1000,3	0,017
1000,7	0,016
1001,1	0,015
1001,5	0,015
1002	0,015
1002,4	0,014
1002,8	0,014
1003,2	0,014
1003,6	0,014
1004	0,014
1004,5	0,015
1004,9	0,015
1005,3	0,016
1005,7	0,015
1006,1	0,015
1006,6	0,016
1007	0,015
1007,4	0,014
1007,8	0,013
1008,2	0,013
1008,6	0,013
1009,1	0,013
1009,5	0,013
1009,9	0,013
1010,3	0,013
1010,7	0,013
1011,1	0,013
1011,6	0,013
1012	0,013
1012,4	0,013
1012,8	0,012
1013,2	0,013
1013,6	0,013
1014,1	0,013
1014,5	0,014
1014,9	0,013
1015,3	0,013
1015,7	0,013
1016,1	0,013
1016,6	0,014
1017	0,013
1017,4	0,012
1017,8	0,012
1018,2	0,012
1018,6	0,012
1019,1	0,012
1019,5	0,011
1019,9	0,011
1020,3	0,012
1020,7	0,012
1021,1	0,012
1021,6	0,012
1022	0,012
1022,4	0,013
1022,8	0,013
1023,2	0,013
1023,6	0,013
1024,1	0,012
1024,5	0,012
1024,9	0,012
1025,3	0,012
1025,7	0,012
1026,1	0,013
1026,6	0,013
1027	0,013
1027,4	0,013
1027,8	0,012
1028,2	0,012
1028,6	0,012
1029	0,011
1029,5	0,012
1029,9	0,013
1030,3	0,013
1030,7	0,013
1031,1	0,013
1031,5	0,013
1032	0,012
1032,4	0,011
1032,8	0,011
1033,2	0,011
1033,6	0,011
1034	0,011
1034,4	0,011
1034,9	0,012
1035,3	0,012
1035,7	0,013
1036,1	0,013
1036,5	0,014
1036,9	0,013
1037,4	0,013
1037,8	0,013
1038,2	0,013
1038,6	0,011
1039	0,011
1039,4	0,011
1039,8	0,011
1040,3	0,011
1040,7	0,01
1041,1	0,01
1041,5	0,011
1041,9	0,011
1042,3	0,011
1042,7	0,01
1043,2	0,011
1043,6	0,012
1044	0,012
1044,4	0,012
1044,8	0,012
1045,2	0,014
1045,6	0,014
1046,1	0,014
1046,5	0,013
1046,9	0,014
1047,3	0,015
1047,7	0,014
1048,1	0,013
1048,5	0,012
1049	0,013
1049,4	0,012
1049,8	0,012
1050,2	0,011
1050,6	0,012
1051	0,012
1051,4	0,013
1051,9	0,012
1052,3	0,013
1052,7	0,014
1053,1	0,014
1053,5	0,014
1053,9	0,014
1054,3	0,013
1054,8	0,014
1055,2	0,014
1055,6	0,013
1056	0,013
1056,4	0,012
1056,8	0,012
1057,2	0,012
1057,6	0,012
1058,1	0,012
1058,5	0,011
1058,9	0,012
1059,3	0,012
1059,7	0,011
1060,1	0,011
1060,5	0,012
1061	0,013
1061,4	0,013
1061,8	0,012
1062,2	0,012
1062,6	0,012
1063	0,012
1063,4	0,011
1063,8	0,01
1064,3	0,011
1064,7	0,012
1065,1	0,013
1065,5	0,014
1065,9	0,015
1066,3	0,016
1066,7	0,017
1067,1	0,017
1067,6	0,016
1068	0,015
1068,4	0,016
1068,8	0,014
1069,2	0,013
1069,6	0,013
1070	0,013
1070,4	0,013
1070,9	0,014
1071,3	0,015
1071,7	0,016
1072,1	0,015
1072,5	0,017
1072,9	0,017
1073,3	0,016
1073,7	0,015
1074,2	0,015
1074,6	0,014
1075	0,015
1075,4	0,013
1075,8	0,012
1076,2	0,012
1076,6	0,012
1077	0,011
1077,5	0,011
1077,9	0,01
1078,3	0,009
1078,7	0,01
1079,1	0,011
1079,5	0,012
1079,9	0,014
1080,3	0,014
1080,7	0,015
1081,2	0,016
1081,6	0,015
1082	0,017
1082,4	0,015
1082,8	0,015
1083,2	0,015
1083,6	0,013
1084	0,011
1084,5	0,01
1084,9	0,01
1085,3	0,01
1085,7	0,007
1086,1	0,005
1086,5	0,008
1086,9	0,01
1087,3	0,011
1087,7	0,009
1088,2	0,008
1088,6	0,011
1089	0,016
1089,4	0,013
1089,8	0,014
1090,2	0,015
1090,6	0,016
1091	0,015
1091,4	0,017
1091,9	0,014
1092,3	0,018
1092,7	0,019
1093,1	0,019
1093,5	0,02
1093,9	0,024
1094,3	0,022
1094,7	0,026
1095,1	0,028
1095,5	0,026
1096	0,023
1096,4	0,014
1096,8	0,012
1097,2	0,006
1097,6	-0,002
1098	-0,007
1098,4	0
1098,8	0,011
1099,2	0,023
1099,6	0,024
1100,1	0,029
1100,5	0,035
1100,9	0,038
1101,3	0,026
1101,7	0,021
1102,1	0,02
1102,5	0,025
1102,9	0,03
1103,3	0,03
1103,7	0,034
1104,2	0,041
1104,6	0,034
1105	0,032
1105,4	0,032
1105,8	0,025
1106,2	0,039
1106,6	0,026
1107	0,04
1107,4	0,088
1107,8	0,144
1108,3	-0
