Data from Subt2_19-41-04-120.txt Node
Date: Tue Nov 15 19:41:04 MSK 2022
User: vat
Spectrometer: MAYP114033
Trigger mode: 0
Integration Time (sec): 3,500000E-1
Scans to average: 3
Electric dark correction enabled: true
Nonlinearity correction enabled: false
Boxcar width: 0
XAxis mode: Wavelengths
Number of Pixels in Spectrum: 2068
>>>>>Begin Spectral Data<<<<<
199,4	1,167
199,9	2,167
200,4	-3,167
200,8	-1,167
201,3	21,5
201,8	16,833
202,2	-5,833
202,7	29,167
203,2	22,167
203,6	8,167
204,1	14,167
204,6	30,5
205	12,833
205,5	20,833
206	34,167
206,4	19,5
206,9	8,5
207,4	0,167
207,8	20,167
208,3	18,833
208,8	20,833
209,2	-8,5
209,7	12,167
210,2	21,833
210,6	19,833
211,1	-13,833
211,5	-10,167
212	14,5
212,5	20,167
212,9	10,167
213,4	25,5
213,9	31,167
214,3	21,833
214,8	0,167
215,3	17,833
215,7	2,167
216,2	6,5
216,7	-6,833
217,1	26,5
217,6	-16,5
218,1	22,167
218,5	-9,167
219	13,833
219,5	-12,5
219,9	39,167
220,4	-2,5
220,9	16,833
221,3	5,167
221,8	-8,833
222,3	30,167
222,7	43,5
223,2	-12,5
223,6	2,167
224,1	10,5
224,6	26,5
225	-1,833
225,5	17,833
226	13,167
226,4	-13,167
226,9	-1,5
227,4	4,5
227,8	2,5
228,3	-6,5
228,8	29,167
229,2	-11,167
229,7	26,833
230,2	7,167
230,6	10,833
231,1	-20,5
231,5	21,833
232	15,5
232,5	17,5
232,9	10,167
233,4	22,833
233,9	-8,833
234,3	11,833
234,8	33,833
235,3	-7,5
235,7	15,5
236,2	-3,167
236,7	10,833
237,1	3,5
237,6	31,5
238,1	35,833
238,5	10,167
239	12,167
239,4	-4,833
239,9	19,833
240,4	9,167
240,8	-1,833
241,3	9,167
241,8	-10,833
242,2	11,5
242,7	-5,167
243,2	-3,833
243,6	3,167
244,1	11,167
244,6	33,833
245	15,5
245,5	40,5
245,9	-10,833
246,4	7,5
246,9	3,833
247,3	29,5
247,8	-11,167
248,3	-3,167
248,7	9,5
249,2	2,5
249,7	-6,833
250,1	8,5
250,6	23,5
251	0,833
251,5	-9,5
252	14,167
252,4	-2,833
252,9	11,5
253,4	10,5
253,8	11,167
254,3	-13,833
254,8	22,167
255,2	11,167
255,7	-14,5
256,1	1,167
256,6	19,833
257,1	-8,833
257,5	34,167
258	-3,833
258,5	-12,167
258,9	18,167
259,4	-3,833
259,9	-12,833
260,3	39,833
260,8	2,5
261,2	16,167
261,7	35,833
262,2	-3,5
262,6	20,833
263,1	16,167
263,6	30,167
264	-12,5
264,5	16,833
264,9	-10,5
265,4	-21,167
265,9	14,167
266,3	27,167
266,8	4,833
267,3	9,167
267,7	5,167
268,2	2,167
268,7	3,833
269,1	-2,5
269,6	10,833
270	5,5
270,5	2,5
271	4,167
271,4	-4,5
271,9	-0,167
272,4	8,167
272,8	37,5
273,3	30,5
273,7	3,833
274,2	8,5
274,7	20,833
275,1	5,833
275,6	2,5
276,1	-6,833
276,5	47,833
277	22,167
277,4	12,167
277,9	1,833
278,4	40,167
278,8	10,5
279,3	-15,5
279,8	22,5
280,2	9,5
280,7	-9,167
281,1	-0,5
281,6	-8,833
282,1	18,167
282,5	-1,833
283	-3,5
283,4	14,5
283,9	7,167
284,4	-0,167
284,8	25,5
285,3	11,5
285,8	5,167
286,2	22,167
286,7	20,167
287,1	40,167
287,6	13,5
288,1	36,167
288,5	1,833
289	39,167
289,5	23,5
289,9	18,833
290,4	-9,833
290,8	15,5
291,3	2,833
291,8	-6,167
292,2	4,167
292,7	17,833
293,1	7,833
293,6	-20,5
294,1	18,5
294,5	6,833
295	-5,5
295,5	31,833
295,9	29,5
296,4	20,167
296,8	9,833
297,3	-3,5
297,8	46,5
298,2	1,833
298,7	42,833
299,1	-20,167
299,6	19,167
300,1	17,5
300,5	-7,5
301	-13,833
301,5	10,833
301,9	20,833
302,4	-3,167
302,8	3,5
303,3	-35,167
303,8	28,833
304,2	32,167
304,7	19,167
305,1	-0,5
305,6	12,5
306,1	4,167
306,5	0,5
307	4,833
307,4	-19,167
307,9	17,833
308,4	10,167
308,8	8,167
309,3	39,833
309,8	1,5
310,2	26,5
310,7	-0,833
311,1	3,833
311,6	37,833
312,1	18,833
312,5	29,167
313	16,167
313,4	5,167
313,9	17,5
314,4	15,5
314,8	6,5
315,3	17,833
315,7	-9,5
316,2	-6,833
316,7	12,833
317,1	35,833
317,6	23,5
318	20,833
318,5	1,833
319	17,833
319,4	-3,5
319,9	25,167
320,3	6,833
320,8	6,5
321,3	4,833
321,7	27,167
322,2	34,5
322,6	18,5
323,1	15,167
323,6	8,167
324	21,833
324,5	10,167
324,9	45,5
325,4	19,5
325,9	13,833
326,3	20,833
326,8	30,833
327,2	15,5
327,7	12,167
328,2	33,167
328,6	49,167
329,1	53,5
329,5	43,167
330	24,5
330,5	27,167
330,9	3,5
331,4	16,833
331,8	13,833
332,3	-9,5
332,8	26,5
333,2	49,5
333,7	28,833
334,1	21,833
334,6	17,167
335,1	6,167
335,5	36,5
336	2,833
336,4	31,833
336,9	13,167
337,4	31,5
337,8	0,167
338,3	51,167
338,7	21,833
339,2	24,5
339,7	9,5
340,1	16,5
340,6	40,5
341	17,833
341,5	16,833
342	17,5
342,4	46,833
342,9	43,833
343,3	18,5
343,8	15,5
344,2	-0,167
344,7	12,833
345,2	49,167
345,6	51,167
346,1	18,833
346,5	49,5
347	8,167
347,5	25,5
347,9	58,5
348,4	31,5
348,8	10,167
349,3	22,833
349,8	25,833
350,2	23,5
350,7	43,5
351,1	7,167
351,6	2,5
352	44,5
352,5	31,5
353	32,833
353,4	19,833
353,9	22,833
354,3	32,167
354,8	53,5
355,3	45,833
355,7	34,833
356,2	70,167
356,6	72,5
357,1	66,5
357,5	61,167
358	84,833
358,5	104,5
358,9	99,5
359,4	84,5
359,8	151,167
360,3	154,5
360,8	175,833
361,2	202,833
361,7	182,167
362,1	215,5
362,6	275,833
363	302,5
363,5	342,833
364	332,167
364,4	400,5
364,9	402,167
365,3	460,5
365,8	515,833
366,3	533,833
366,7	509,167
367,2	609,833
367,6	616,167
368,1	596,5
368,5	613,5
369	623,5
369,5	658,833
369,9	643,5
370,4	628,167
370,8	602,167
371,3	592,167
371,7	616,167
372,2	565,167
372,7	581,833
373,1	549,167
373,6	518,167
374	507,833
374,5	494,833
374,9	451,167
375,4	460,833
375,9	439,167
376,3	409,833
376,8	430,833
377,2	410,833
377,7	432,167
378,2	397,833
378,6	418,167
379,1	412,833
379,5	398,833
380	451,5
380,4	467,5
380,9	480,167
381,4	486,167
381,8	520,833
382,3	551,833
382,7	586,5
383,2	579,833
383,6	630,5
384,1	670,833
384,6	682,5
385	753,5
385,5	834,167
385,9	844,833
386,4	935,167
386,8	959,167
387,3	1037,833
387,7	1105,167
388,2	1153,5
388,7	1268,833
389,1	1332,833
389,6	1417,833
390	1515,167
390,5	1590,833
390,9	1702,5
391,4	1775,5
391,9	1910,833
392,3	1991,167
392,8	2131,167
393,2	2297,5
393,7	2384,167
394,1	2491,5
394,6	2706,5
395,1	2832,833
395,5	2992,833
396	3162,5
396,4	3289,167
396,9	3442,167
397,3	3658,833
397,8	3857,833
398,2	4046,5
398,7	4205,167
399,2	4434,167
399,6	4628,167
400,1	4874,167
400,5	5077,833
401	5329,167
401,4	5604,167
401,9	5815,833
402,4	6033,833
402,8	6342,167
403,3	6549,833
403,7	6830,833
404,2	7161,5
404,6	7461,167
405,1	7717,167
405,5	7986,833
406	8253,5
406,5	8641,167
406,9	8988,167
407,4	9364,167
407,8	9565,833
408,3	9984,167
408,7	10293,167
409,2	10679,833
409,6	11035,167
410,1	11356,5
410,6	11754,167
411	12073,833
411,5	12489,833
411,9	12778,5
412,4	13272,167
412,8	13688,833
413,3	14024,5
413,7	14413,833
414,2	14856,5
414,7	15244,167
415,1	15681,167
415,6	16069,167
416	16523,833
416,5	16987,833
416,9	17437,833
417,4	17717,167
417,8	18178,833
418,3	18691,5
418,8	19098,167
419,2	19611,833
419,7	19971,5
420,1	20440,833
420,6	20908,833
421	21349,5
421,5	21804,167
421,9	22300,167
422,4	22670,5
422,8	23277,167
423,3	23603,833
423,8	24072,833
424,2	24479,833
424,7	24949,167
425,1	25510,833
425,6	25819,167
426	26263,5
426,5	26698,833
426,9	27187,5
427,4	27636,5
427,9	27986,833
428,3	28479,167
428,8	29038,5
429,2	29378,5
429,7	29944,167
430,1	30323,167
430,6	30739,167
431	31117,833
431,5	31698,167
431,9	32009,833
432,4	32442,833
432,8	32853,833
433,3	33295,167
433,8	33633,5
434,2	34123,167
434,7	34588,167
435,1	34856,833
435,6	35333,833
436	35718,167
436,5	36021,167
436,9	36489,167
437,4	36952,5
437,8	37232,5
438,3	37593,5
438,8	38036,5
439,2	38274,167
439,7	38714,167
440,1	39007,167
440,6	39325,833
441	39830,5
441,5	39980,5
441,9	40356,167
442,4	40640,167
442,8	41049,167
443,3	41225,833
443,7	41563,167
444,2	41770,167
444,7	42036,167
445,1	42281,5
445,6	42544,167
446	42729,833
446,5	43049,167
446,9	43185,167
447,4	43592,833
447,8	43756,167
448,3	43848,5
448,7	44124,167
449,2	44267,167
449,6	44398,833
450,1	44591,833
450,6	44790,5
451	44938,5
451,5	44961,833
451,9	45127,833
452,4	45299,833
452,8	45462,167
453,3	45617,5
453,7	45685,167
454,2	45728,833
454,6	45920,5
455,1	46092,167
455,5	46113,167
456	46188,5
456,4	46232,5
456,9	46443,833
457,3	46315,5
457,8	46366,5
458,3	46389,5
458,7	46434,5
459,2	46519,833
459,6	46536,167
460,1	46653,167
460,5	46590,833
461	46631,167
461,4	46539,5
461,9	46601,833
462,3	46593,167
462,8	46366,833
463,2	46469,167
463,7	46404,5
464,1	46410,167
464,6	46415,833
465	46173,167
465,5	46055,167
466	46261,833
466,4	46088,833
466,9	45914,5
467,3	45835,5
467,8	45644,833
468,2	45588,833
468,7	45560,167
469,1	45488,5
469,6	45314,5
470	45230,167
470,5	45200,833
470,9	45104,167
471,4	44813,833
471,8	44641,5
472,3	44593,5
472,7	44528,5
473,2	44296,167
473,6	44191,167
474,1	43974,833
474,5	43777,5
475	43654,833
475,4	43513,167
475,9	43324,833
476,4	43149,833
476,8	43077,167
477,3	42916,167
477,7	42649,5
478,2	42552,5
478,6	42249,833
479,1	42080,167
479,5	41847,5
480	41611,5
480,4	41393,167
480,9	41426,167
481,3	40933,167
481,8	40908,5
482,2	40700,167
482,7	40451,5
483,1	40144,167
483,6	39955,167
484	39815,167
484,5	39455,833
484,9	39321,5
485,4	39007,5
485,8	38765,833
486,3	38445,167
486,7	38280,5
487,2	38082,833
487,6	37799,167
488,1	37606,833
488,5	37284,833
489	37097,5
489,4	36870,5
489,9	36554,167
490,4	36275,833
490,8	36126,5
491,3	35790,5
491,7	35570,833
492,2	35296,167
492,6	35127,833
493,1	34840,5
493,5	34418,167
494	34321,833
494,4	34003,833
494,9	33683,833
495,3	33532,833
495,8	33206,5
496,2	33064,167
496,7	32818,167
497,1	32599,833
497,6	32252,5
498	31982,5
498,5	31701,833
498,9	31528,167
499,4	31285,833
499,8	30945,167
500,3	30792,167
500,7	30613,833
501,2	30211,5
501,6	30216,5
502,1	29808,833
502,5	29590,5
503	29395,167
503,4	29078,167
503,9	28907,833
504,3	28722,5
504,8	28406,833
505,2	28305,167
505,7	28044,5
506,1	27737,167
506,6	27500,167
507	27245,833
507,5	27141,5
507,9	26750,167
508,4	26532,833
508,8	26298,833
509,3	26135,833
509,7	25917,5
510,2	25583,833
510,6	25446,167
511,1	25174,5
511,5	24964,833
512	24813,167
512,4	24444,5
512,9	24315,5
513,3	24193,167
513,8	23825,5
514,2	23660,5
514,7	23269,5
515,1	23173,5
515,6	23026,833
516	22838,5
516,5	22567,5
516,9	22375,167
517,4	22146,833
517,8	21914,167
518,3	21645,5
518,7	21460,5
519,2	21207,5
519,6	21073,167
520,1	20873,167
520,5	20596,5
521	20440,167
521,4	20171,833
521,9	19922,5
522,3	19807,5
522,8	19607,5
523,2	19385,5
523,7	19157,833
524,1	19120,167
524,6	18801,833
525	18620,167
525,5	18299,167
525,9	18276,167
526,4	18064,833
526,8	17781,833
527,3	17715,833
527,7	17445,167
528,2	17358,167
528,6	17128,167
529,1	17030,833
529,5	16720,833
530	16582,5
530,4	16373,167
530,9	16205,833
531,3	16109,833
531,8	15894,833
532,2	15762,5
532,6	15516,5
533,1	15427,833
533,5	15211,833
534	15029,5
534,4	14903,167
534,9	14648,833
535,3	14504,833
535,8	14394,833
536,2	14276,5
536,7	14111,5
537,1	13956,167
537,6	13736,833
538	13593,167
538,5	13456,167
538,9	13268,833
539,4	13191,5
539,8	13036,833
540,3	12952,167
540,7	12739,167
541,2	12513,5
541,6	12440,833
542,1	12329,167
542,5	12123,5
543	12072,833
543,4	11853,5
543,9	11753,833
544,3	11632,167
544,8	11477,5
545,2	11338,167
545,7	11200,833
546,1	11116,5
546,5	10927,5
547	10796,833
547,4	10606,167
547,9	10627,833
548,3	10431,167
548,8	10326,167
549,2	10218,167
549,7	10045,5
550,1	9961,5
550,6	9759,833
551	9715,167
551,5	9662,5
551,9	9474,5
552,4	9417,5
552,8	9305,167
553,3	9191,833
553,7	9096,167
554,2	8966,5
554,6	8787,833
555,1	8739,833
555,5	8666,833
555,9	8607,167
556,4	8441,167
556,8	8433,167
557,3	8262,5
557,7	8136,833
558,2	8026,5
558,6	7889,833
559,1	7914,833
559,5	7830,5
560	7736,167
560,4	7598,5
560,9	7474,833
561,3	7424,833
561,8	7364,5
562,2	7270,833
562,7	7193,5
563,1	7072,5
563,6	6949,5
564	6900,167
564,4	6851,833
564,9	6771,167
565,3	6615,833
565,8	6581,167
566,2	6458,167
566,7	6473,833
567,1	6398,5
567,6	6290,5
568	6170,5
568,5	6095,5
568,9	6053,833
569,4	5947,833
569,8	5902,167
570,3	5807,833
570,7	5702,833
571,1	5679,833
571,6	5622,833
572	5562,167
572,5	5491,5
572,9	5403,5
573,4	5370,5
573,8	5255,167
574,3	5168,833
574,7	5124,833
575,2	5064,167
575,6	5036,833
576,1	4957,167
576,5	4907,833
576,9	4820,5
577,4	4806,167
577,8	4693,833
578,3	4640,5
578,7	4592,167
579,2	4469,5
579,6	4470,167
580,1	4414,167
580,5	4397,5
581	4293,5
581,4	4241,5
581,9	4224,833
582,3	4142,833
582,7	4130,5
583,2	3985,833
583,6	4002,5
584,1	3913,167
584,5	3874,167
585	3849,5
585,4	3774,167
585,9	3716,5
586,3	3675,833
586,8	3677,167
587,2	3616,833
587,6	3527,167
588,1	3463,167
588,5	3465,167
589	3432,833
589,4	3378,5
589,9	3348,167
590,3	3295,833
590,8	3269,167
591,2	3185,5
591,7	3188,167
592,1	3125,5
592,5	3082,5
593	3052,833
593,4	3024,5
593,9	2960,833
594,3	2962,5
594,8	2891,5
595,2	2848,833
595,7	2841,833
596,1	2755,833
596,6	2769,833
597	2687,167
597,4	2669,5
597,9	2681,167
598,3	2662,833
598,8	2614,5
599,2	2582,167
599,7	2563,5
600,1	2512,167
600,6	2476,5
601	2465,833
601,4	2394,5
601,9	2403,833
602,3	2408,833
602,8	2347,833
603,2	2285,167
603,7	2236,5
604,1	2231,5
604,6	2226,5
605	2192,5
605,4	2137,5
605,9	2151,167
606,3	2108,167
606,8	2086,167
607,2	2053,833
607,7	2021,833
608,1	2063,5
608,6	1967,833
609	1973,833
609,4	1965,167
609,9	1942,5
610,3	1881,5
610,8	1873,167
611,2	1838,167
611,7	1837,5
612,1	1782,167
612,6	1791,5
613	1788,5
613,4	1740,5
613,9	1717,833
614,3	1672,167
614,8	1624,5
615,2	1665,5
615,7	1617,5
616,1	1603,833
616,6	1588,5
617	1559,833
617,4	1528,833
617,9	1535,167
618,3	1500,833
618,8	1495,167
619,2	1495,833
619,7	1441,167
620,1	1474,5
620,5	1449,833
621	1363,167
621,4	1370,167
621,9	1328,167
622,3	1353,167
622,8	1321,833
623,2	1303,5
623,6	1309,5
624,1	1265,833
624,5	1258,167
625	1274,833
625,4	1203,833
625,9	1195,5
626,3	1204,5
626,8	1172,167
627,2	1168,167
627,6	1139,167
628,1	1112,833
628,5	1075,5
629	1097,5
629,4	1111,833
629,9	1081,5
630,3	1069,167
630,7	1069,5
631,2	1025,833
631,6	1016,167
632,1	1000,5
632,5	996,5
633	941,833
633,4	981,5
633,8	952,167
634,3	964,5
634,7	913,167
635,2	938,833
635,6	907,833
636,1	869,833
636,5	863,5
636,9	886,167
637,4	867,167
637,8	866,833
638,3	838,167
638,7	848,167
639,2	834,167
639,6	811,833
640	784,833
640,5	814,833
640,9	780,5
641,4	742,833
641,8	777,167
642,2	785,833
642,7	749,5
643,1	737,833
643,6	757,833
644	719,833
644,5	720,167
644,9	704,167
645,3	714,5
645,8	706,833
646,2	673,5
646,7	683,167
647,1	645,167
647,6	656,167
648	648,167
648,4	672,833
648,9	616,5
649,3	636,833
649,8	633,167
650,2	642,5
650,6	623,167
651,1	570,833
651,5	579,833
652	604,5
652,4	577,167
652,9	581,5
653,3	567,5
653,7	548,167
654,2	544,167
654,6	552,167
655,1	560,167
655,5	512,167
655,9	507,833
656,4	522,167
656,8	515,833
657,3	511,167
657,7	505,833
658,2	514,5
658,6	470,167
659	499,5
659,5	487,5
659,9	473,5
660,4	441,5
660,8	411,167
661,2	455,833
661,7	446,5
662,1	440,833
662,6	420,167
663	460,5
663,4	430,167
663,9	414,167
664,3	421,833
664,8	402,167
665,2	415,833
665,6	384,5
666,1	392,5
666,5	371,167
667	397,167
667,4	409,833
667,9	388,5
668,3	397,5
668,7	384,833
669,2	358,167
669,6	351,833
670,1	369,833
670,5	386,167
670,9	374,167
671,4	342,833
671,8	338,833
672,3	327,833
672,7	332,167
673,1	345,5
673,6	328,167
674	354,5
674,5	326,167
674,9	301,833
675,3	312,5
675,8	302,833
676,2	286,5
676,7	304,833
677,1	307,5
677,5	270,833
678	277,833
678,4	297,5
678,9	267,167
679,3	250,5
679,7	265,833
680,2	277,833
680,6	260,167
681,1	254,167
681,5	280,833
681,9	235,167
682,4	252,5
682,8	247,167
683,3	243,167
683,7	238,833
684,1	250,5
684,6	231,5
685	209,167
685,5	229,167
685,9	224,5
686,3	220,167
686,8	212,833
687,2	234,833
687,7	230,833
688,1	215,167
688,5	206,833
689	173,167
689,4	206,167
689,9	223,167
690,3	200,833
690,7	193,5
691,2	207,833
691,6	216,5
692	201,167
692,5	163,5
692,9	198,833
693,4	191,833
693,8	200,833
694,2	174,5
694,7	144,5
695,1	159,167
695,6	199,833
696	187,5
696,4	148,833
696,9	178,833
697,3	156,167
697,8	184,5
698,2	152,167
698,6	184,5
699,1	156,5
699,5	179,167
699,9	147,833
700,4	154,167
700,8	153,833
701,3	161,833
701,7	120,167
702,1	157,5
702,6	169,833
703	127,833
703,5	165,5
703,9	114,5
704,3	148,5
704,8	128,167
705,2	142,5
705,6	142,833
706,1	133,833
706,5	117,167
707	153,5
707,4	150,5
707,8	90,833
708,3	101,167
708,7	109,167
709,2	110,5
709,6	96,5
710	116,167
710,5	103,5
710,9	108,833
711,3	113,5
711,8	128,833
712,2	110,833
712,7	110,833
713,1	91,833
713,5	84,167
714	96,167
714,4	88,833
714,8	129,5
715,3	109,833
715,7	110,833
716,2	74,167
716,6	110,167
717	102,833
717,5	124,833
717,9	120,833
718,3	135,833
718,8	108,167
719,2	99,5
719,7	108,5
720,1	100,5
720,5	107,5
721	83,167
721,4	82,5
721,8	60,167
722,3	83,167
722,7	74,167
723,2	99,5
723,6	94,5
724	108,833
724,5	110,833
724,9	82,833
725,3	96,833
725,8	111,5
726,2	84,5
726,7	88,833
727,1	52,167
727,5	80,833
728	75,833
728,4	54,167
728,8	103,167
729,3	75,5
729,7	61,833
730,1	62,833
730,6	93,167
731	77,833
731,5	76,833
731,9	68,833
732,3	53,167
732,8	74,5
733,2	79,833
733,6	46,167
734,1	53,5
734,5	66,5
734,9	43,5
735,4	43,833
735,8	54,167
736,3	74,833
736,7	77,167
737,1	61,167
737,6	70,167
738	79,167
738,4	61,5
738,9	56,167
739,3	27,5
739,7	43,5
740,2	35,833
740,6	61,5
741,1	65,5
741,5	47,833
741,9	27,833
742,4	70,5
742,8	50,167
743,2	73,833
743,7	24,5
744,1	72,167
744,5	48,833
745	31,833
745,4	89,167
745,8	23,833
746,3	53,5
746,7	48,5
747,2	7,167
747,6	69,833
748	29,167
748,5	40,5
748,9	62,167
749,3	18,167
749,8	33,5
750,2	53,833
750,6	35,833
751,1	50,833
751,5	19,167
751,9	44,833
752,4	21,167
752,8	43,833
753,3	60,5
753,7	38,5
754,1	41,833
754,6	42,167
755	-0,833
755,4	50,5
755,9	60,167
756,3	72,5
756,7	42,5
757,2	45,167
757,6	14,167
758	22,833
758,5	14,5
758,9	37,167
759,3	50,833
759,8	43,5
760,2	15,833
760,6	39,167
761,1	51,167
761,5	14,5
761,9	71,167
762,4	33,833
762,8	21,5
763,3	25,833
763,7	18,5
764,1	39,5
764,6	27,833
765	34,833
765,4	32,833
765,9	31,167
766,3	43,167
766,7	9,167
767,2	-1,833
767,6	27,167
768	9,833
768,5	22,833
768,9	17,5
769,3	10,167
769,8	25,5
770,2	-6,833
770,6	40,167
771,1	50,5
771,5	-8,167
771,9	28,167
772,4	34,833
772,8	15,5
773,2	44,833
773,7	6,167
774,1	53,833
774,5	28,5
775	35,5
775,4	39,833
775,8	48,833
776,3	29,5
776,7	42,167
777,1	48,167
777,6	5,167
778	13,167
778,4	45,5
778,9	36,5
779,3	32,833
779,7	2,833
780,2	20,833
780,6	39,5
781	38,5
781,5	20,167
781,9	17,833
782,3	6,167
782,8	41,167
783,2	-2,167
783,6	-1,833
784,1	9,5
784,5	30,5
784,9	16,167
785,4	13,833
785,8	41,833
786,2	-2,833
786,7	35,5
787,1	29,167
787,5	9,5
788	18,167
788,4	31,167
788,8	15,833
789,3	4,167
789,7	17,833
790,1	26,167
790,6	15,833
791	29,5
791,4	31,167
791,9	15,833
792,3	19,833
792,7	34,167
793,2	15,5
793,6	-5,167
794	21,833
794,5	8,5
794,9	23,833
795,3	23,5
795,8	21,167
796,2	20,5
796,6	9,167
797,1	21,833
797,5	17,5
797,9	33,5
798,4	47,5
798,8	9,5
799,2	11,167
799,7	41,5
800,1	13,833
800,5	23,5
801	20,5
801,4	4,167
801,8	30,833
802,2	35,167
802,7	48,833
803,1	5,833
803,5	25,833
804	-1,833
804,4	22,833
804,8	11,833
805,3	19,167
805,7	-11,833
806,1	12,167
806,6	33,167
807	12,833
807,4	26,167
807,9	35,833
808,3	22,833
808,7	2,833
809,2	3,5
809,6	24,167
810	29,833
810,4	32,167
810,9	41,833
811,3	6,167
811,7	17,167
812,2	14,167
812,6	-1,167
813	-7,167
813,5	22,167
813,9	12,5
814,3	8,5
814,8	13,833
815,2	19,5
815,6	9,167
816,1	3,167
816,5	17,5
816,9	10,5
817,3	1,167
817,8	20,5
818,2	1,833
818,6	-3,167
819,1	31,5
819,5	5,833
819,9	3,5
820,4	15,167
820,8	1,167
821,2	-4,167
821,7	9,167
822,1	6,167
822,5	-6,5
822,9	16,167
823,4	34,5
823,8	5,167
824,2	-9,833
824,7	3,833
825,1	-27,5
825,5	-1,5
826	-12,5
826,4	11,167
826,8	-3,833
827,3	-6,167
827,7	-6,5
828,1	29,833
828,5	4,833
829	7,5
829,4	28,167
829,8	11,167
830,3	24,5
830,7	-14,833
831,1	-5,167
831,6	-12,833
832	49,167
832,4	23,167
832,8	-1,5
833,3	7,5
833,7	26,833
834,1	6,833
834,6	3,5
835	5,167
835,4	5,833
835,8	6,167
836,3	2,833
836,7	-1,833
837,1	-6,167
837,6	12,167
838	37,167
838,4	-4,167
838,9	0,5
839,3	19,167
839,7	-7,5
840,1	-14,167
840,6	20,167
841	-12,833
841,4	8,5
841,9	22,833
842,3	8,167
842,7	3,167
843,1	8,167
843,6	18,167
844	12,833
844,4	2,833
844,9	-1,5
845,3	37,833
845,7	24,833
846,2	18,833
846,6	1,167
847	27,833
847,4	10,833
847,9	23,833
848,3	5,167
848,7	20,5
849,2	34,167
849,6	35,167
850	5,167
850,4	-10,5
850,9	-19,167
851,3	20,5
851,7	8,833
852,2	17,167
852,6	-23,5
853	1,167
853,4	26,833
853,9	20,167
854,3	7,833
854,7	1,167
855,2	5,5
855,6	18,167
856	7,833
856,4	-11,167
856,9	7,5
857,3	22,5
857,7	-22,167
858,2	-6,833
858,6	20,167
859	-11,167
859,4	35,5
859,9	0,167
860,3	12,5
860,7	0,833
861,1	-8,167
861,6	-1,5
862	-12,833
862,4	8,167
862,9	7,5
863,3	20,5
863,7	15,167
864,1	8,5
864,6	11,5
865	20,167
865,4	15,5
865,9	16,5
866,3	11,5
866,7	13,5
867,1	11,833
867,6	6,5
868	11,167
868,4	-16,5
868,8	7,167
869,3	17,167
869,7	-14,5
870,1	2,167
870,6	8,167
871	-0,167
871,4	36,167
871,8	-2,167
872,3	31,833
872,7	13,167
873,1	30,833
873,5	-4,833
874	-13,167
874,4	-23,167
874,8	9,833
875,3	9,5
875,7	19,833
876,1	7,833
876,5	11,167
877	21,833
877,4	-8,5
877,8	22,833
878,2	11,833
878,7	-17,5
879,1	12,5
879,5	-10,833
879,9	8,5
880,4	-6,167
880,8	8,5
881,2	-10,167
881,7	3,167
882,1	15,167
882,5	-10,167
882,9	-2,5
883,4	13,167
883,8	11,167
884,2	12,167
884,6	-10,833
885,1	23,167
885,5	30,5
885,9	4,5
886,3	-4,167
886,8	-1,167
887,2	3,833
887,6	12,833
888	0,167
888,5	15,833
888,9	15,5
889,3	18,167
889,8	-7,167
890,2	-16,167
890,6	-4,5
891	10,167
891,5	0,5
891,9	4,167
892,3	-5,5
892,7	8,833
893,2	4,167
893,6	-2,167
894	8,833
894,4	1,167
894,9	-5,5
895,3	-1,5
895,7	14,833
896,1	30,833
896,6	-11,5
897	7,167
897,4	19,5
897,8	-2,167
898,3	-19,167
898,7	6,167
899,1	1,167
899,5	1,167
900	19,5
900,4	-2,167
900,8	-34,167
901,2	0,833
901,7	0,167
902,1	-38,5
902,5	34,167
902,9	20,5
903,4	13,167
903,8	35,833
904,2	7,833
904,6	-42,167
905,1	11,833
905,5	-2,167
905,9	13,5
906,3	-3,833
906,8	50,833
907,2	4,167
907,6	-9,5
908	7,833
908,5	2,833
908,9	13,167
909,3	3,167
909,7	-4,833
910,2	23,833
910,6	23,5
911	0,167
911,4	12,833
911,9	24,5
912,3	18,5
912,7	-2,5
913,1	19,167
913,6	22,167
914	-5,5
914,4	25,5
914,8	-2,5
915,3	13,167
915,7	-15,5
916,1	-2,5
916,5	8,833
916,9	-5,5
917,4	-9,167
917,8	44,167
918,2	-9,5
918,6	-33,167
919,1	-33,167
919,5	19,833
919,9	12,5
920,3	0,833
920,8	-18,833
921,2	5,5
921,6	39,167
922	42,5
922,5	-10,833
922,9	-16,167
923,3	30,833
923,7	-1,5
924,2	12,167
924,6	-10,167
925	-2,5
925,4	5,167
925,8	31,833
926,3	16,167
926,7	2,833
927,1	-6,167
927,5	-5,5
928	13,167
928,4	35,167
928,8	-9,167
929,2	-1,167
929,7	33,5
930,1	25,833
930,5	6,167
930,9	29,167
931,3	-17,833
931,8	-1,167
932,2	13,167
932,6	-16,833
933	3,5
933,5	-3,833
933,9	2,5
934,3	3,833
934,7	-20,5
935,2	13,5
935,6	25,833
936	13,5
936,4	-23,833
936,8	30,167
937,3	3,167
937,7	15,167
938,1	-7,167
938,5	48,5
939	-33,833
939,4	16,5
939,8	4,5
940,2	3,833
940,6	-2,5
941,1	-13,167
941,5	11,5
941,9	9,5
942,3	-20,5
942,8	14,5
943,2	4,167
943,6	-1,5
944	-14,167
944,4	17,833
944,9	-2,5
945,3	1,5
945,7	14,5
946,1	-26,833
946,6	-19,5
947	37,5
947,4	-11,167
947,8	14,5
948,2	-3,167
948,7	11,833
949,1	9,833
949,5	17,167
949,9	21,833
950,3	9,5
950,8	11,5
951,2	-42,833
951,6	0,5
952	6,167
952,5	5,5
952,9	0,5
953,3	-14,833
953,7	-2,833
954,1	24,833
954,6	13,5
955	-13,167
955,4	-5,167
955,8	14,833
956,2	-34,167
956,7	29,5
957,1	4,167
957,5	-6,167
957,9	-10,167
958,3	9,5
958,8	-8,167
959,2	-0,167
959,6	7,167
960	-3,833
960,5	19,833
960,9	-13,167
961,3	-6,167
961,7	41,167
962,1	19,5
962,6	-10,5
963	3,5
963,4	16,833
963,8	27,167
964,2	8,167
964,7	8,5
965,1	20,5
965,5	15,833
965,9	39,5
966,3	-25,167
966,8	9,833
967,2	-30,833
967,6	-2,167
968	10,5
968,4	-8,167
968,9	-8,833
969,3	-2,5
969,7	7,5
970,1	-2,167
970,5	-7,833
971	-11,167
971,4	22,167
971,8	-1,833
972,2	-2,167
972,6	25,167
973,1	21,833
973,5	18,833
973,9	6,833
974,3	0,833
974,7	3,5
975,2	21,833
975,6	-10,167
976	-8,167
976,4	-15,5
976,8	-15,833
977,3	9,5
977,7	-0,167
978,1	9,833
978,5	1,833
978,9	2,833
979,4	32,167
979,8	6,5
980,2	10,167
980,6	3,5
981	-4,5
981,5	4,5
981,9	-1,5
982,3	5,833
982,7	-27,833
983,1	16,5
983,6	18,5
984	3,167
984,4	-0,167
984,8	-6,5
985,2	6,5
985,6	-13,5
986,1	39,833
986,5	-5,5
986,9	15,5
987,3	-10,167
987,7	-6,5
988,2	26,167
988,6	0,5
989	28,167
989,4	19,167
989,8	-8,5
990,3	-35,5
990,7	-19,833
991,1	-25,833
991,5	7,833
991,9	-1,833
992,3	5,167
992,8	18,167
993,2	8,167
993,6	3,833
994	-8,167
994,4	21,833
994,9	34,5
995,3	-11,167
995,7	6,167
996,1	17,833
996,5	12,5
996,9	-0,167
997,4	-22,833
997,8	4,167
998,2	-19,5
998,6	-16,167
999	10,5
999,5	11,167
999,9	13,167
1000,3	22,5
1000,7	-9,5
1001,1	21,833
1001,5	5,5
1002	-13,833
1002,4	27,167
1002,8	3,5
1003,2	26,167
1003,6	10,833
1004	1,167
1004,5	-15,167
1004,9	-6,833
1005,3	27,5
1005,7	6,167
1006,1	18,167
1006,6	17,5
1007	-21,833
1007,4	28,167
1007,8	-3,5
1008,2	7,5
1008,6	3,5
1009,1	2,833
1009,5	8,833
1009,9	1,5
1010,3	8,5
1010,7	-1,167
1011,1	26,833
1011,6	21,5
1012	15,833
1012,4	6,167
1012,8	13,5
1013,2	35,5
1013,6	7,833
1014,1	2,5
1014,5	-4,833
1014,9	19,833
1015,3	4,167
1015,7	26,167
1016,1	14,167
1016,6	17,5
1017	22,5
1017,4	30,833
1017,8	7,167
1018,2	6,5
1018,6	-3,5
1019,1	14,5
1019,5	-13,5
1019,9	18,167
1020,3	10,167
1020,7	0,833
1021,1	-14,5
1021,6	7,833
1022	-13,167
1022,4	-10,833
1022,8	3,5
1023,2	16,167
1023,6	-21,167
1024,1	3,167
1024,5	-1,5
1024,9	-3,833
1025,3	27,833
1025,7	-24,167
1026,1	-8,167
1026,6	5,833
1027	10,167
1027,4	25,833
1027,8	-14,5
1028,2	-6,833
1028,6	12,167
1029	2,833
1029,5	5,5
1029,9	-9,5
1030,3	-15,167
1030,7	18,5
1031,1	27,167
1031,5	14,833
1032	-12,833
1032,4	10,833
1032,8	3,167
1033,2	-9,167
1033,6	-1,167
1034	-20,833
1034,4	4,167
1034,9	18,5
1035,3	16,167
1035,7	-5,167
1036,1	1,833
1036,5	12,167
1036,9	9,833
1037,4	40,167
1037,8	16,167
1038,2	21,167
1038,6	12,5
1039	11,5
1039,4	12,167
1039,8	5,833
1040,3	22,167
1040,7	3,5
1041,1	32,167
1041,5	-2,833
1041,9	-8,833
1042,3	-19,833
1042,7	16,5
1043,2	19,167
1043,6	18,167
1044	-10,167
1044,4	3,833
1044,8	12,5
1045,2	-11,167
1045,6	-8,833
1046,1	16,5
1046,5	11,833
1046,9	-8,833
1047,3	-10,833
1047,7	10,5
1048,1	11,833
1048,5	2,833
1049	23,167
1049,4	-6,833
1049,8	21,167
1050,2	-1,5
1050,6	-21,167
1051	31,167
1051,4	1,833
1051,9	-15,167
1052,3	13,167
1052,7	2,833
1053,1	1,167
1053,5	-6,5
1053,9	24,167
1054,3	-6,5
1054,8	14,833
1055,2	36,833
1055,6	15,5
1056	-6,5
1056,4	-1,833
1056,8	-2,5
1057,2	30,833
1057,6	31,167
1058,1	21,167
1058,5	9,833
1058,9	-3,833
1059,3	-7,167
1059,7	-4,167
1060,1	-2,5
1060,5	5,167
1061	20,5
1061,4	10,833
1061,8	35,833
1062,2	32,167
1062,6	-0,833
1063	27,833
1063,4	-5,833
1063,8	20,167
1064,3	-12,833
1064,7	-1,833
1065,1	-11,167
1065,5	20,833
1065,9	5,5
1066,3	7,5
1066,7	23,167
1067,1	-20,5
1067,6	31,167
1068	-29,5
1068,4	-7,5
1068,8	19,167
1069,2	27,167
1069,6	19,167
1070	3,167
1070,4	-10,167
1070,9	-0,833
1071,3	8,167
1071,7	-5,167
1072,1	-15,833
1072,5	18,167
1072,9	17,5
1073,3	19,167
1073,7	9,833
1074,2	17,833
1074,6	-20,5
1075	18,5
1075,4	15,5
1075,8	6,5
1076,2	32,5
1076,6	1,167
1077	24,167
1077,5	20,5
1077,9	30,5
1078,3	-1,833
1078,7	4,833
1079,1	17,5
1079,5	-12,167
1079,9	23,5
1080,3	-11,167
1080,7	21,167
1081,2	-0,5
1081,6	19,833
1082	-0,5
1082,4	0,833
1082,8	13,167
1083,2	17,167
1083,6	-26,833
1084	4,167
1084,5	6,833
1084,9	4,5
1085,3	18,833
1085,7	-3,167
1086,1	0,167
1086,5	4,5
1086,9	-9,833
1087,3	14,167
1087,7	22,5
1088,2	17,833
1088,6	16,167
1089	-18,167
1089,4	-33,167
1089,8	2,5
1090,2	-27,5
1090,6	8,167
1091	38,167
1091,4	5,833
1091,9	-10,833
1092,3	7,167
1092,7	-9,167
1093,1	19,5
1093,5	7,833
1093,9	30,167
1094,3	18,167
1094,7	18,167
1095,1	8,833
1095,5	4,833
1096	-48,167
1096,4	-12,833
1096,8	-3,833
1097,2	3,167
1097,6	-18,5
1098	27,5
1098,4	13,5
1098,8	-10,5
1099,2	-7,5
1099,6	38,5
1100,1	15,167
1100,5	-1,5
1100,9	17,833
1101,3	-23,5
1101,7	8,167
1102,1	24,5
1102,5	29,167
1102,9	0,833
1103,3	17,167
1103,7	-1,833
1104,2	11,833
1104,6	-17,833
1105	14,5
1105,4	-6,167
1105,8	-7,167
1106,2	7,167
1106,6	-11,167
1107	1,5
1107,4	4,5
1107,8	-2,833
1108,3	1,167
