Data from Subt2_20-11-29-884.txt Node
Date: Tue Nov 15 20:11:29 MSK 2022
User: vat
Spectrometer: MAYP114033
Trigger mode: 0
Integration Time (sec): 3,500000E-1
Scans to average: 3
Electric dark correction enabled: true
Nonlinearity correction enabled: false
Boxcar width: 0
XAxis mode: Wavelengths
Number of Pixels in Spectrum: 2068
>>>>>Begin Spectral Data<<<<<
199,4	3,611
199,9	-0,389
200,4	-2,056
200,8	2,611
201,3	1,611
201,8	26,278
202,2	10,611
202,7	44,278
203,2	1,278
203,6	1,944
204,1	23,611
204,6	-13,389
205	47,278
205,5	35,278
206	30,611
206,4	-9,389
206,9	-0,389
207,4	18,944
207,8	35,278
208,3	13,611
208,8	2,944
209,2	2,278
209,7	29,611
210,2	2,611
210,6	66,611
211,1	17,611
211,5	25,611
212	10,611
212,5	18,944
212,9	42,944
213,4	12,611
213,9	15,278
214,3	17,278
214,8	12,611
215,3	23,278
215,7	14,611
216,2	14,611
216,7	6,278
217,1	10,944
217,6	16,278
218,1	24,611
218,5	23,944
219	24,944
219,5	3,944
219,9	-8,056
220,4	26,278
220,9	2,944
221,3	53,944
221,8	18,278
222,3	23,611
222,7	50,944
223,2	-3,389
223,6	42,944
224,1	33,944
224,6	40,611
225	-8,056
225,5	14,278
226	5,944
226,4	36,278
226,9	25,944
227,4	22,611
227,8	25,611
228,3	8,278
228,8	7,944
229,2	25,611
229,7	31,278
230,2	14,611
230,6	24,611
231,1	-1,722
231,5	7,944
232	52,611
232,5	-3,722
232,9	36,944
233,4	-15,389
233,9	22,278
234,3	11,278
234,8	-0,056
235,3	1,944
235,7	30,278
236,2	-5,722
236,7	41,611
237,1	18,944
237,6	12,611
238,1	43,611
238,5	29,278
239	-6,722
239,4	34,611
239,9	22,611
240,4	11,278
240,8	21,278
241,3	43,611
241,8	10,944
242,2	21,944
242,7	9,611
243,2	35,611
243,6	38,611
244,1	8,278
244,6	16,944
245	11,611
245,5	7,611
245,9	37,611
246,4	42,944
246,9	11,944
247,3	32,944
247,8	8,944
248,3	37,944
248,7	18,278
249,2	1,278
249,7	19,611
250,1	23,278
250,6	36,611
251	6,278
251,5	36,278
252	10,944
252,4	47,611
252,9	16,278
253,4	10,278
253,8	11,944
254,3	15,611
254,8	35,944
255,2	6,944
255,7	2,278
256,1	40,611
256,6	9,611
257,1	18,944
257,5	-10,389
258	7,611
258,5	34,611
258,9	51,944
259,4	-6,722
259,9	41,278
260,3	11,278
260,8	23,278
261,2	33,278
261,7	7,278
262,2	37,944
262,6	22,611
263,1	22,611
263,6	39,611
264	14,611
264,5	26,278
264,9	15,944
265,4	40,944
265,9	14,278
266,3	22,278
266,8	28,278
267,3	37,611
267,7	21,611
268,2	15,944
268,7	16,611
269,1	13,611
269,6	22,278
270	18,944
270,5	21,611
271	23,611
271,4	31,278
271,9	12,278
272,4	10,611
272,8	15,611
273,3	40,611
273,7	50,278
274,2	21,944
274,7	72,944
275,1	18,278
275,6	26,611
276,1	43,944
276,5	34,278
277	26,278
277,4	18,944
277,9	53,944
278,4	24,944
278,8	38,944
279,3	-20,389
279,8	19,611
280,2	16,611
280,7	12,944
281,1	24,944
281,6	31,611
282,1	12,611
282,5	28,278
283	34,944
283,4	41,611
283,9	-17,389
284,4	50,278
284,8	19,611
285,3	11,611
285,8	2,611
286,2	30,611
286,7	51,944
287,1	24,278
287,6	37,278
288,1	12,278
288,5	12,278
289	24,944
289,5	33,944
289,9	-13,389
290,4	34,944
290,8	22,278
291,3	28,278
291,8	17,611
292,2	36,278
292,7	-4,389
293,1	0,611
293,6	27,611
294,1	45,611
294,5	-1,722
295	13,944
295,5	38,611
295,9	44,944
296,4	-0,722
296,8	12,944
297,3	-23,722
297,8	47,611
298,2	21,278
298,7	17,611
299,1	37,611
299,6	49,944
300,1	16,278
300,5	34,278
301	27,611
301,5	32,278
301,9	24,278
302,4	35,944
302,8	24,611
303,3	3,278
303,8	29,944
304,2	31,944
304,7	38,944
305,1	45,278
305,6	52,611
306,1	42,611
306,5	22,278
307	29,944
307,4	16,278
307,9	36,611
308,4	18,611
308,8	-14,722
309,3	0,944
309,8	34,611
310,2	30,278
310,7	-4,056
311,1	6,611
311,6	26,944
312,1	25,611
312,5	24,944
313	41,611
313,4	29,944
313,9	10,278
314,4	44,944
314,8	25,944
315,3	25,611
315,7	10,278
316,2	31,278
316,7	7,611
317,1	16,278
317,6	18,944
318	28,278
318,5	4,944
319	26,278
319,4	14,278
319,9	13,944
320,3	7,611
320,8	8,278
321,3	12,278
321,7	18,611
322,2	-1,056
322,6	23,944
323,1	-1,722
323,6	21,611
324	31,944
324,5	38,611
324,9	36,611
325,4	-2,722
325,9	15,611
326,3	27,278
326,8	46,278
327,2	33,278
327,7	14,611
328,2	11,611
328,6	17,611
329,1	13,944
329,5	42,611
330	25,611
330,5	54,944
330,9	27,278
331,4	27,611
331,8	17,944
332,3	15,278
332,8	18,278
333,2	-7,722
333,7	24,278
334,1	17,611
334,6	22,944
335,1	40,944
335,5	11,278
336	-4,056
336,4	24,611
336,9	10,278
337,4	27,944
337,8	15,278
338,3	13,278
338,7	25,944
339,2	68,278
339,7	31,944
340,1	28,611
340,6	37,278
341	36,278
341,5	37,278
342	5,944
342,4	42,278
342,9	-9,389
343,3	16,611
343,8	17,944
344,2	43,944
344,7	12,278
345,2	14,278
345,6	34,611
346,1	9,611
346,5	21,278
347	20,278
347,5	32,278
347,9	31,944
348,4	22,944
348,8	13,278
349,3	27,278
349,8	15,944
350,2	14,611
350,7	28,611
351,1	-11,722
351,6	32,611
352	13,278
352,5	15,278
353	26,611
353,4	54,611
353,9	21,278
354,3	33,944
354,8	65,944
355,3	52,278
355,7	23,944
356,2	12,944
356,6	50,944
357,1	62,611
357,5	64,611
358	70,944
358,5	69,611
358,9	51,611
359,4	93,944
359,8	90,611
360,3	90,611
360,8	103,278
361,2	100,278
361,7	131,611
362,1	146,944
362,6	153,278
363	148,278
363,5	186,944
364	197,278
364,4	223,278
364,9	251,944
365,3	266,611
365,8	264,278
366,3	298,611
366,7	279,278
367,2	346,278
367,6	322,278
368,1	340,944
368,5	323,944
369	345,278
369,5	363,944
369,9	314,944
370,4	370,278
370,8	350,944
371,3	336,944
371,7	323,611
372,2	314,278
372,7	295,611
373,1	284,278
373,6	278,944
374	254,944
374,5	224,278
374,9	231,611
375,4	230,278
375,9	190,278
376,3	210,278
376,8	197,944
377,2	182,611
377,7	183,611
378,2	167,278
378,6	169,944
379,1	176,278
379,5	184,278
380	196,278
380,4	193,611
380,9	183,611
381,4	180,278
381,8	200,611
382,3	187,944
382,7	173,278
383,2	190,278
383,6	208,278
384,1	173,278
384,6	250,611
385	219,944
385,5	232,944
385,9	256,611
386,4	247,278
386,8	270,944
387,3	258,944
387,7	271,278
388,2	305,278
388,7	321,944
389,1	311,611
389,6	367,611
390	363,944
390,5	407,278
390,9	432,944
391,4	446,611
391,9	464,944
392,3	475,278
392,8	523,944
393,2	563,944
393,7	601,944
394,1	604,278
394,6	678,944
395,1	658,944
395,5	720,944
396	774,278
396,4	786,944
396,9	822,278
397,3	863,944
397,8	898,944
398,2	947,278
398,7	982,611
399,2	1024,944
399,6	1108,611
400,1	1172,278
400,5	1199,611
401	1253,944
401,4	1315,278
401,9	1373,611
402,4	1424,611
402,8	1483,944
403,3	1534,278
403,7	1603,278
404,2	1675,278
404,6	1723,944
405,1	1779,944
405,5	1820,944
406	1875,611
406,5	1947,944
406,9	2030,611
407,4	2146,278
407,8	2123,611
408,3	2218,611
408,7	2289,611
409,2	2335,944
409,6	2394,944
410,1	2484,944
410,6	2585,944
411	2616,944
411,5	2677,944
411,9	2686,944
412,4	2762,611
412,8	2817,611
413,3	2934,278
413,7	2954,944
414,2	3000,611
414,7	3154,944
415,1	3164,278
415,6	3181,611
416	3291,611
416,5	3378,944
416,9	3422,611
417,4	3460,944
417,8	3580,611
418,3	3556,278
418,8	3649,611
419,2	3703,278
419,7	3765,611
420,1	3748,278
420,6	3847,611
421	3894,944
421,5	3922,278
421,9	4021,278
422,4	4064,611
422,8	4109,611
423,3	4171,944
423,8	4250,944
424,2	4263,944
424,7	4283,278
425,1	4335,278
425,6	4380,944
426	4427,278
426,5	4491,611
426,9	4502,944
427,4	4491,278
427,9	4578,611
428,3	4617,944
428,8	4637,944
429,2	4654,278
429,7	4713,611
430,1	4746,944
430,6	4817,944
431	4771,278
431,5	4831,278
431,9	4872,944
432,4	4889,278
432,8	4917,944
433,3	4958,944
433,8	5013,611
434,2	5068,611
434,7	5056,944
435,1	5066,611
435,6	5093,278
436	5098,278
436,5	5125,611
436,9	5142,611
437,4	5185,611
437,8	5119,278
438,3	5173,944
438,8	5192,944
439,2	5206,611
439,7	5216,611
440,1	5228,611
440,6	5224,278
441	5279,944
441,5	5188,944
441,9	5266,278
442,4	5202,278
442,8	5233,278
443,3	5265,944
443,7	5271,611
444,2	5241,278
444,7	5233,611
445,1	5297,944
445,6	5331,278
446	5302,278
446,5	5258,278
446,9	5277,278
447,4	5254,278
447,8	5246,611
448,3	5260,278
448,7	5235,944
449,2	5200,611
449,6	5249,278
450,1	5176,944
450,6	5262,611
451	5184,944
451,5	5156,278
451,9	5128,611
452,4	5173,611
452,8	5131,611
453,3	5127,944
453,7	5082,611
454,2	5075,944
454,6	5055,944
455,1	5077,944
455,5	5020,278
456	5030,611
456,4	5040,611
456,9	4988,278
457,3	4963,944
457,8	4914,278
458,3	4965,611
458,7	4868,278
459,2	4866,944
459,6	4828,278
460,1	4810,944
460,5	4765,611
461	4717,944
461,4	4769,611
461,9	4701,278
462,3	4754,944
462,8	4678,611
463,2	4637,278
463,7	4669,278
464,1	4601,944
464,6	4545,944
465	4570,944
465,5	4564,944
466	4540,278
466,4	4464,611
466,9	4473,944
467,3	4442,944
467,8	4399,278
468,2	4405,611
468,7	4333,611
469,1	4306,611
469,6	4335,944
470	4287,278
470,5	4230,944
470,9	4225,944
471,4	4202,944
471,8	4214,944
472,3	4149,944
472,7	4057,278
473,2	4076,611
473,6	4117,944
474,1	4049,278
474,5	4025,278
475	3986,611
475,4	3970,944
475,9	3906,944
476,4	3907,611
476,8	3872,944
477,3	3858,944
477,7	3827,278
478,2	3809,611
478,6	3747,278
479,1	3725,278
479,5	3677,278
480	3657,944
480,4	3638,278
480,9	3609,278
481,3	3618,611
481,8	3541,611
482,2	3534,944
482,7	3505,944
483,1	3506,278
483,6	3470,278
484	3422,278
484,5	3395,944
484,9	3417,611
485,4	3346,278
485,8	3329,611
486,3	3314,611
486,7	3263,278
487,2	3233,278
487,6	3162,611
488,1	3214,611
488,5	3185,611
489	3107,278
489,4	3072,611
489,9	3047,944
490,4	3061,611
490,8	2984,611
491,3	2958,611
491,7	2987,278
492,2	2944,944
492,6	2934,611
493,1	2835,278
493,5	2859,611
494	2848,611
494,4	2826,944
494,9	2782,278
495,3	2746,611
495,8	2759,611
496,2	2730,611
496,7	2713,611
497,1	2675,944
497,6	2658,611
498	2633,611
498,5	2585,611
498,9	2552,278
499,4	2539,944
499,8	2519,611
500,3	2542,944
500,7	2495,944
501,2	2479,278
501,6	2438,278
502,1	2448,611
502,5	2422,611
503	2414,278
503,4	2364,278
503,9	2380,278
504,3	2339,611
504,8	2326,611
505,2	2254,278
505,7	2291,611
506,1	2272,611
506,6	2239,944
507	2222,278
507,5	2202,278
507,9	2234,278
508,4	2134,278
508,8	2152,944
509,3	2128,278
509,7	2064,944
510,2	2117,944
510,6	2060,278
511,1	2049,611
511,5	2053,611
512	2051,611
512,4	1979,944
512,9	2029,944
513,3	1987,278
513,8	1953,944
514,2	1932,944
514,7	1870,278
515,1	1913,944
515,6	1856,611
516	1887,278
516,5	1862,278
516,9	1847,278
517,4	1822,611
517,8	1833,278
518,3	1806,611
518,7	1778,611
519,2	1776,944
519,6	1758,944
520,1	1757,278
520,5	1735,278
521	1722,944
521,4	1691,278
521,9	1648,611
522,3	1657,278
522,8	1642,944
523,2	1648,611
523,7	1570,611
524,1	1617,278
524,6	1594,278
525	1593,611
525,5	1575,944
525,9	1586,278
526,4	1547,611
526,8	1519,278
527,3	1523,278
527,7	1488,278
528,2	1436,611
528,6	1480,944
529,1	1463,278
529,5	1432,611
530	1431,611
530,4	1397,944
530,9	1407,944
531,3	1444,611
531,8	1350,944
532,2	1374,944
532,6	1391,611
533,1	1325,944
533,5	1311,278
534	1295,611
534,4	1300,611
534,9	1291,944
535,3	1303,611
535,8	1303,944
536,2	1267,611
536,7	1304,278
537,1	1257,278
537,6	1226,278
538	1211,278
538,5	1207,278
538,9	1196,611
539,4	1222,278
539,8	1178,944
540,3	1170,611
540,7	1223,944
541,2	1155,278
541,6	1139,278
542,1	1117,944
542,5	1133,278
543	1122,611
543,4	1068,611
543,9	1106,944
544,3	1107,278
544,8	1095,278
545,2	1063,944
545,7	1042,611
546,1	1013,611
546,5	982,944
547	1028,611
547,4	1020,278
547,9	1012,944
548,3	976,944
548,8	1000,944
549,2	1014,611
549,7	990,611
550,1	967,278
550,6	962,611
551	928,278
551,5	949,278
551,9	955,278
552,4	909,944
552,8	901,278
553,3	909,944
553,7	914,278
554,2	876,611
554,6	854,944
555,1	866,944
555,5	866,611
555,9	842,611
556,4	832,611
556,8	875,611
557,3	833,278
557,7	831,278
558,2	834,278
558,6	806,278
559,1	805,944
559,5	817,611
560	814,944
560,4	824,278
560,9	791,278
561,3	753,944
561,8	770,278
562,2	759,944
562,7	748,944
563,1	751,611
563,6	720,611
564	770,944
564,4	746,611
564,9	747,944
565,3	731,611
565,8	710,278
566,2	722,944
566,7	670,278
567,1	711,278
567,6	677,611
568	686,278
568,5	656,611
568,9	679,278
569,4	662,611
569,8	657,278
570,3	644,944
570,7	646,278
571,1	633,278
571,6	660,611
572	622,278
572,5	604,944
572,9	653,944
573,4	625,278
573,8	615,611
574,3	587,944
574,7	597,278
575,2	582,944
575,6	602,611
576,1	570,944
576,5	599,278
576,9	594,944
577,4	535,611
577,8	524,944
578,3	584,944
578,7	543,944
579,2	537,944
579,6	537,611
580,1	516,611
580,5	519,278
581	518,944
581,4	531,611
581,9	548,278
582,3	512,278
582,7	480,278
583,2	504,611
583,6	481,278
584,1	480,944
584,5	486,944
585	486,278
585,4	475,278
585,9	461,611
586,3	461,278
586,8	512,278
587,2	467,278
587,6	440,611
588,1	445,944
588,5	459,611
589	420,611
589,4	438,611
589,9	416,944
590,3	437,944
590,8	403,611
591,2	440,611
591,7	419,278
592,1	403,611
592,5	410,611
593	391,611
593,4	408,944
593,9	401,278
594,3	421,611
594,8	380,611
595,2	376,611
595,7	388,278
596,1	392,611
596,6	389,944
597	374,611
597,4	372,278
597,9	354,944
598,3	367,278
598,8	344,278
599,2	382,278
599,7	369,611
600,1	344,611
600,6	386,611
601	369,611
601,4	361,278
601,9	348,278
602,3	350,611
602,8	350,278
603,2	323,278
603,7	327,278
604,1	317,611
604,6	333,944
605	380,278
605,4	348,611
605,9	312,611
606,3	305,278
606,8	325,611
607,2	324,944
607,7	300,611
608,1	283,944
608,6	253,944
609	331,944
609,4	317,278
609,9	281,944
610,3	293,944
610,8	287,611
611,2	305,278
611,7	313,278
612,1	311,944
612,6	293,944
613	263,278
613,4	266,944
613,9	284,611
614,3	267,611
614,8	253,944
615,2	266,278
615,7	260,278
616,1	266,278
616,6	239,944
617	250,611
617,4	235,611
617,9	245,278
618,3	254,611
618,8	245,611
619,2	270,611
619,7	262,944
620,1	244,944
620,5	228,944
621	250,611
621,4	179,611
621,9	269,278
622,3	222,278
622,8	250,611
623,2	246,278
623,6	217,611
624,1	203,278
624,5	172,944
625	260,944
625,4	212,278
625,9	209,611
626,3	237,611
626,8	199,611
627,2	198,278
627,6	222,944
628,1	201,278
628,5	209,278
629	203,611
629,4	188,278
629,9	215,944
630,3	165,944
630,7	217,944
631,2	170,278
631,6	189,611
632,1	183,611
632,5	166,611
633	193,278
633,4	175,611
633,8	203,278
634,3	186,278
634,7	165,944
635,2	156,278
635,6	161,944
636,1	157,611
636,5	184,611
636,9	164,611
637,4	159,278
637,8	136,944
638,3	149,278
638,7	179,278
639,2	149,944
639,6	126,611
640	138,944
640,5	149,278
640,9	140,611
641,4	144,944
641,8	170,944
642,2	149,278
642,7	143,278
643,1	153,278
643,6	138,278
644	156,278
644,5	153,944
644,9	165,278
645,3	121,278
645,8	132,944
646,2	146,611
646,7	132,278
647,1	148,944
647,6	149,944
648	102,611
648,4	154,278
648,9	149,944
649,3	110,944
649,8	124,611
650,2	143,944
650,6	120,278
651,1	116,278
651,5	112,944
652	147,278
652,4	151,278
652,9	101,944
653,3	119,278
653,7	129,611
654,2	111,611
654,6	88,278
655,1	108,278
655,5	131,278
655,9	122,278
656,4	88,278
656,8	131,944
657,3	114,278
657,7	69,278
658,2	134,944
658,6	97,611
659	101,611
659,5	118,278
659,9	110,278
660,4	79,278
660,8	103,278
661,2	103,944
661,7	140,944
662,1	127,278
662,6	91,944
663	89,944
663,4	99,611
663,9	107,278
664,3	97,611
664,8	89,944
665,2	108,944
665,6	85,611
666,1	133,944
666,5	108,278
667	83,611
667,4	86,944
667,9	100,944
668,3	103,611
668,7	90,611
669,2	121,611
669,6	76,611
670,1	84,944
670,5	78,944
670,9	91,944
671,4	98,611
671,8	90,944
672,3	107,611
672,7	107,611
673,1	70,278
673,6	48,278
674	66,611
674,5	74,611
674,9	65,611
675,3	96,944
675,8	106,278
676,2	73,944
676,7	74,944
677,1	91,944
677,5	99,944
678	79,611
678,4	77,278
678,9	73,611
679,3	76,278
679,7	98,944
680,2	74,944
680,6	79,611
681,1	62,278
681,5	104,944
681,9	83,611
682,4	102,278
682,8	47,944
683,3	84,611
683,7	58,611
684,1	67,278
684,6	66,278
685	51,944
685,5	46,944
685,9	60,611
686,3	41,944
686,8	91,278
687,2	92,944
687,7	73,944
688,1	65,944
688,5	93,944
689	51,944
689,4	69,611
689,9	55,611
690,3	51,278
690,7	64,278
691,2	75,944
691,6	51,944
692	58,278
692,5	53,944
692,9	57,278
693,4	54,611
693,8	29,278
694,2	42,944
694,7	43,278
695,1	83,944
695,6	54,611
696	58,944
696,4	44,611
696,9	52,278
697,3	43,278
697,8	49,944
698,2	34,278
698,6	54,611
699,1	61,944
699,5	40,611
699,9	27,278
700,4	38,944
700,8	48,278
701,3	55,944
701,7	44,611
702,1	55,944
702,6	53,278
703	43,611
703,5	64,944
703,9	41,278
704,3	56,611
704,8	73,278
705,2	50,611
705,6	56,611
706,1	55,944
706,5	74,944
707	22,944
707,4	44,944
707,8	52,611
708,3	48,944
708,7	20,278
709,2	78,944
709,6	28,611
710	52,611
710,5	57,611
710,9	94,278
711,3	34,278
711,8	22,944
712,2	33,611
712,7	45,278
713,1	8,278
713,5	29,611
714	60,611
714,4	57,611
714,8	11,944
715,3	33,278
715,7	96,278
716,2	46,944
716,6	59,611
717	29,944
717,5	45,611
717,9	44,278
718,3	45,611
718,8	70,278
719,2	50,944
719,7	35,611
720,1	41,278
720,5	51,611
721	47,611
721,4	53,611
721,8	26,278
722,3	22,944
722,7	47,944
723,2	36,944
723,6	38,944
724	37,944
724,5	36,278
724,9	28,944
725,3	23,611
725,8	45,278
726,2	34,611
726,7	55,278
727,1	15,611
727,5	39,944
728	7,611
728,4	31,611
728,8	23,611
729,3	19,611
729,7	62,944
730,1	25,278
730,6	47,611
731	25,278
731,5	55,278
731,9	38,611
732,3	8,278
732,8	17,944
733,2	42,278
733,6	17,611
734,1	17,611
734,5	42,278
734,9	40,278
735,4	27,611
735,8	48,278
736,3	8,944
736,7	13,278
737,1	44,944
737,6	35,278
738	25,611
738,4	14,278
738,9	45,611
739,3	18,278
739,7	3,944
740,2	13,278
740,6	45,944
741,1	19,944
741,5	38,278
741,9	45,611
742,4	25,944
742,8	28,278
743,2	43,278
743,7	34,944
744,1	26,278
744,5	54,278
745	20,611
745,4	33,944
745,8	21,944
746,3	14,611
746,7	26,278
747,2	45,944
747,6	21,944
748	41,944
748,5	18,278
748,9	3,944
749,3	25,944
749,8	49,944
750,2	20,278
750,6	-2,056
751,1	40,611
751,5	27,944
751,9	25,944
752,4	34,278
752,8	32,278
753,3	44,944
753,7	46,278
754,1	31,278
754,6	22,611
755	-3,722
755,4	24,278
755,9	30,944
756,3	56,611
756,7	-7,056
757,2	23,278
757,6	31,278
758	54,944
758,5	37,278
758,9	34,944
759,3	18,278
759,8	5,611
760,2	46,944
760,6	13,611
761,1	20,944
761,5	6,611
761,9	35,944
762,4	19,611
762,8	56,611
763,3	39,944
763,7	27,278
764,1	2,611
764,6	8,278
765	6,944
765,4	18,611
765,9	19,611
766,3	13,278
766,7	30,278
767,2	19,278
767,6	32,278
768	13,278
768,5	19,944
768,9	15,944
769,3	6,278
769,8	13,611
770,2	57,611
770,6	18,611
771,1	39,944
771,5	41,611
771,9	14,278
772,4	29,611
772,8	24,278
773,2	24,944
773,7	46,944
774,1	4,611
774,5	48,944
775	15,944
775,4	-19,722
775,8	24,278
776,3	5,278
776,7	38,944
777,1	57,611
777,6	10,278
778	26,611
778,4	23,278
778,9	28,944
779,3	15,611
779,7	2,944
780,2	20,944
780,6	9,611
781	26,944
781,5	-7,389
781,9	7,278
782,3	31,611
782,8	-7,389
783,2	57,611
783,6	24,611
784,1	39,278
784,5	36,278
784,9	15,278
785,4	39,944
785,8	10,944
786,2	12,944
786,7	28,278
787,1	19,278
787,5	7,278
788	15,278
788,4	23,611
788,8	23,944
789,3	13,278
789,7	-1,056
790,1	23,278
790,6	-0,389
791	15,944
791,4	15,944
791,9	13,944
792,3	40,278
792,7	18,944
793,2	42,278
793,6	38,611
794	9,944
794,5	32,278
794,9	33,611
795,3	19,278
795,8	53,611
796,2	9,278
796,6	32,611
797,1	26,611
797,5	7,944
797,9	37,278
798,4	52,944
798,8	24,944
799,2	32,278
799,7	50,611
800,1	0,278
800,5	20,944
801	15,278
801,4	36,944
801,8	-4,056
802,2	38,278
802,7	23,278
803,1	9,278
803,5	14,611
804	7,278
804,4	40,611
804,8	15,944
805,3	29,944
805,7	34,611
806,1	-9,389
806,6	19,944
807	7,944
807,4	4,278
807,9	10,944
808,3	36,944
808,7	31,611
809,2	13,278
809,6	15,278
810	18,611
810,4	37,278
810,9	28,944
811,3	45,611
811,7	29,611
812,2	22,278
812,6	22,278
813	40,944
813,5	0,611
813,9	2,278
814,3	14,944
814,8	25,278
815,2	22,611
815,6	41,278
816,1	25,278
816,5	28,611
816,9	12,611
817,3	15,611
817,8	19,944
818,2	30,611
818,6	1,944
819,1	9,944
819,5	59,278
819,9	-5,056
820,4	23,944
820,8	4,278
821,2	16,611
821,7	-8,389
822,1	-21,389
822,5	19,944
822,9	28,278
823,4	0,944
823,8	48,944
824,2	12,944
824,7	44,611
825,1	41,278
825,5	20,944
826	6,611
826,4	39,944
826,8	24,278
827,3	28,278
827,7	28,611
828,1	14,278
828,5	43,611
829	3,944
829,4	23,611
829,8	12,611
830,3	34,278
830,7	31,944
831,1	22,611
831,6	2,611
832	22,611
832,4	34,611
832,8	37,611
833,3	48,611
833,7	15,611
834,1	24,944
834,6	24,278
835	-7,389
835,4	22,278
835,8	35,278
836,3	42,944
836,7	37,278
837,1	14,278
837,6	22,278
838	7,611
838,4	42,278
838,9	-9,722
839,3	9,944
839,7	3,278
840,1	23,944
840,6	18,611
841	25,611
841,4	40,278
841,9	27,611
842,3	20,944
842,7	14,611
843,1	7,944
843,6	2,278
844	21,611
844,4	2,278
844,9	28,611
845,3	12,278
845,7	32,278
846,2	20,278
846,6	38,611
847	24,611
847,4	37,611
847,9	13,944
848,3	10,944
848,7	11,278
849,2	14,611
849,6	-2,056
850	-17,389
850,4	25,611
850,9	34,611
851,3	30,944
851,7	30,611
852,2	-2,722
852,6	19,611
853	18,944
853,4	-9,056
853,9	51,278
854,3	16,611
854,7	17,278
855,2	28,278
855,6	34,278
856	11,278
856,4	17,611
856,9	16,278
857,3	10,278
857,7	8,278
858,2	27,278
858,6	18,944
859	1,611
859,4	15,611
859,9	11,278
860,3	18,944
860,7	24,944
861,1	25,611
861,6	8,278
862	39,944
862,4	25,944
862,9	21,611
863,3	25,944
863,7	10,944
864,1	53,278
864,6	10,611
865	-1,722
865,4	3,944
865,9	18,278
866,3	-1,389
866,7	4,944
867,1	-0,056
867,6	35,278
868	-22,722
868,4	29,278
868,8	28,611
869,3	11,611
869,7	4,611
870,1	18,278
870,6	34,278
871	4,944
871,4	11,944
871,8	15,278
872,3	38,278
872,7	19,278
873,1	-1,389
873,5	-24,389
874	35,278
874,4	46,944
874,8	62,278
875,3	17,944
875,7	35,278
876,1	10,944
876,5	16,944
877	32,944
877,4	2,944
877,8	25,611
878,2	11,611
878,7	36,278
879,1	42,278
879,5	26,944
879,9	-5,389
880,4	7,944
880,8	48,278
881,2	13,278
881,7	20,278
882,1	-4,389
882,5	20,278
882,9	23,611
883,4	7,611
883,8	-4,722
884,2	-11,056
884,6	22,944
885,1	21,944
885,5	21,944
885,9	-6,722
886,3	50,944
886,8	22,944
887,2	16,611
887,6	7,611
888	23,611
888,5	20,278
888,9	53,278
889,3	17,611
889,8	43,611
890,2	44,944
890,6	29,611
891	-5,056
891,5	26,611
891,9	22,611
892,3	15,611
892,7	16,611
893,2	9,611
893,6	38,611
894	-7,056
894,4	36,611
894,9	38,944
895,3	51,611
895,7	28,278
896,1	15,944
896,6	12,944
897	27,278
897,4	-26,722
897,8	-0,389
898,3	53,278
898,7	15,944
899,1	16,944
899,5	1,611
900	36,611
900,4	8,611
900,8	0,944
901,2	8,944
901,7	0,278
902,1	47,611
902,5	24,278
902,9	12,611
903,4	41,944
903,8	8,278
904,2	20,611
904,6	34,278
905,1	6,278
905,5	2,611
905,9	33,611
906,3	-5,389
906,8	-2,722
907,2	2,944
907,6	21,278
908	39,278
908,5	27,944
908,9	19,944
909,3	17,944
909,7	16,611
910,2	24,944
910,6	47,611
911	12,611
911,4	-2,389
911,9	34,278
912,3	13,944
912,7	34,278
913,1	21,611
913,6	38,278
914	32,944
914,4	23,611
914,8	25,611
915,3	4,611
915,7	10,611
916,1	16,278
916,5	20,278
916,9	58,611
917,4	16,944
917,8	22,611
918,2	11,278
918,6	10,278
919,1	2,278
919,5	18,611
919,9	43,611
920,3	17,944
920,8	16,944
921,2	11,278
921,6	18,944
922	34,944
922,5	45,611
922,9	9,944
923,3	20,611
923,7	22,611
924,2	3,944
924,6	4,944
925	45,944
925,4	-3,722
925,8	30,611
926,3	11,611
926,7	22,944
927,1	55,278
927,5	-11,056
928	23,278
928,4	11,278
928,8	23,611
929,2	34,611
929,7	15,278
930,1	9,611
930,5	26,944
930,9	26,944
931,3	4,611
931,8	24,611
932,2	1,278
932,6	36,278
933	41,611
933,5	34,278
933,9	5,278
934,3	13,611
934,7	5,944
935,2	18,611
935,6	21,278
936	-6,722
936,4	29,278
936,8	35,611
937,3	28,611
937,7	43,278
938,1	16,611
938,5	6,944
939	1,278
939,4	9,611
939,8	-2,389
940,2	0,611
940,6	36,278
941,1	17,611
941,5	42,278
941,9	13,278
942,3	9,611
942,8	12,278
943,2	26,611
943,6	7,611
944	2,278
944,4	28,944
944,9	46,611
945,3	-10,389
945,7	17,944
946,1	19,944
946,6	-1,389
947	36,944
947,4	42,611
947,8	24,278
948,2	30,611
948,7	4,278
949,1	-4,389
949,5	45,944
949,9	31,278
950,3	29,278
950,8	42,611
951,2	19,278
951,6	17,611
952	11,278
952,5	41,944
952,9	-13,722
953,3	-3,722
953,7	12,611
954,1	31,611
954,6	17,611
955	27,611
955,4	-21,722
955,8	61,278
956,2	25,611
956,7	22,944
957,1	-7,056
957,5	18,944
957,9	13,944
958,3	32,611
958,8	25,278
959,2	26,611
959,6	29,278
960	27,944
960,5	4,611
960,9	16,944
961,3	24,611
961,7	-4,389
962,1	18,278
962,6	14,278
963	14,611
963,4	15,278
963,8	15,944
964,2	21,611
964,7	23,611
965,1	0,278
965,5	37,611
965,9	26,278
966,3	37,278
966,8	26,278
967,2	21,944
967,6	21,278
968	43,278
968,4	27,944
968,9	34,944
969,3	19,611
969,7	47,611
970,1	37,278
970,5	64,278
971	46,278
971,4	22,944
971,8	9,278
972,2	15,944
972,6	-12,056
973,1	13,278
973,5	6,944
973,9	-6,056
974,3	19,278
974,7	53,944
975,2	-21,722
975,6	0,278
976	17,944
976,4	17,944
976,8	18,944
977,3	16,944
977,7	43,944
978,1	34,278
978,5	19,278
978,9	22,611
979,4	32,278
979,8	31,944
980,2	7,611
980,6	16,944
981	15,944
981,5	3,611
981,9	20,944
982,3	1,611
982,7	11,944
983,1	36,611
983,6	15,944
984	17,611
984,4	5,278
984,8	17,944
985,2	23,278
985,6	-4,722
986,1	23,944
986,5	60,278
986,9	-3,056
987,3	20,611
987,7	8,944
988,2	-18,389
988,6	-5,722
989	37,944
989,4	36,944
989,8	13,278
990,3	47,278
990,7	26,944
991,1	23,611
991,5	-16,056
991,9	23,611
992,3	20,944
992,8	38,944
993,2	56,278
993,6	43,611
994	9,611
994,4	23,944
994,9	7,278
995,3	8,611
995,7	17,278
996,1	25,278
996,5	3,611
996,9	16,944
997,4	-0,722
997,8	11,278
998,2	27,611
998,6	20,944
999	26,278
999,5	44,611
999,9	16,611
1000,3	44,611
1000,7	36,611
1001,1	52,611
1001,5	24,278
1002	2,611
1002,4	22,944
1002,8	16,944
1003,2	14,278
1003,6	-0,056
1004	31,611
1004,5	1,944
1004,9	17,944
1005,3	8,611
1005,7	14,944
1006,1	1,611
1006,6	26,611
1007	27,278
1007,4	-1,389
1007,8	19,278
1008,2	-0,389
1008,6	23,611
1009,1	33,278
1009,5	37,944
1009,9	46,611
1010,3	29,278
1010,7	11,611
1011,1	4,611
1011,6	35,611
1012	46,611
1012,4	29,278
1012,8	41,278
1013,2	2,278
1013,6	34,278
1014,1	30,278
1014,5	-9,722
1014,9	14,278
1015,3	14,944
1015,7	37,278
1016,1	12,944
1016,6	23,278
1017	14,611
1017,4	18,944
1017,8	-5,056
1018,2	36,944
1018,6	16,944
1019,1	41,944
1019,5	11,944
1019,9	40,278
1020,3	-8,722
1020,7	-16,722
1021,1	34,944
1021,6	22,278
1022	31,278
1022,4	31,611
1022,8	21,611
1023,2	40,278
1023,6	-1,722
1024,1	-0,389
1024,5	8,611
1024,9	26,278
1025,3	34,944
1025,7	22,611
1026,1	30,944
1026,6	13,278
1027	-4,056
1027,4	28,278
1027,8	24,944
1028,2	22,611
1028,6	51,611
1029	13,278
1029,5	28,611
1029,9	10,278
1030,3	-16,722
1030,7	15,278
1031,1	28,611
1031,5	-7,389
1032	4,944
1032,4	4,611
1032,8	-4,722
1033,2	49,611
1033,6	0,611
1034	27,944
1034,4	12,944
1034,9	34,944
1035,3	37,278
1035,7	42,944
1036,1	32,944
1036,5	36,944
1036,9	13,944
1037,4	-6,389
1037,8	17,944
1038,2	26,611
1038,6	29,611
1039	28,944
1039,4	-4,722
1039,8	18,611
1040,3	27,611
1040,7	38,944
1041,1	30,278
1041,5	32,611
1041,9	40,944
1042,3	14,278
1042,7	-13,056
1043,2	10,944
1043,6	31,278
1044	5,944
1044,4	36,278
1044,8	26,611
1045,2	32,611
1045,6	45,611
1046,1	37,611
1046,5	10,278
1046,9	16,944
1047,3	52,611
1047,7	21,611
1048,1	37,611
1048,5	32,944
1049	17,278
1049,4	26,611
1049,8	20,278
1050,2	18,611
1050,6	28,278
1051	33,611
1051,4	8,278
1051,9	1,611
1052,3	-25,389
1052,7	29,944
1053,1	16,944
1053,5	2,944
1053,9	8,944
1054,3	26,278
1054,8	36,278
1055,2	39,944
1055,6	13,611
1056	19,944
1056,4	32,944
1056,8	30,278
1057,2	39,944
1057,6	24,611
1058,1	28,944
1058,5	8,611
1058,9	24,611
1059,3	21,944
1059,7	42,944
1060,1	0,944
1060,5	37,611
1061	65,611
1061,4	-16,056
1061,8	24,278
1062,2	17,278
1062,6	6,278
1063	14,944
1063,4	40,278
1063,8	21,611
1064,3	27,944
1064,7	-9,389
1065,1	11,944
1065,5	41,278
1065,9	67,611
1066,3	-1,722
1066,7	75,611
1067,1	39,944
1067,6	69,611
1068	16,278
1068,4	16,278
1068,8	0,611
1069,2	38,944
1069,6	8,611
1070	36,611
1070,4	-4,056
1070,9	52,944
1071,3	29,944
1071,7	12,611
1072,1	15,944
1072,5	22,944
1072,9	8,611
1073,3	41,611
1073,7	31,611
1074,2	11,278
1074,6	32,278
1075	25,278
1075,4	34,611
1075,8	27,611
1076,2	25,278
1076,6	29,944
1077	23,611
1077,5	38,944
1077,9	33,611
1078,3	24,278
1078,7	8,944
1079,1	4,278
1079,5	21,611
1079,9	19,611
1080,3	17,278
1080,7	34,278
1081,2	24,611
1081,6	-3,056
1082	5,278
1082,4	29,278
1082,8	15,278
1083,2	27,611
1083,6	3,611
1084	74,611
1084,5	33,944
1084,9	14,611
1085,3	21,611
1085,7	28,278
1086,1	18,611
1086,5	6,278
1086,9	3,611
1087,3	16,278
1087,7	26,278
1088,2	7,278
1088,6	20,278
1089	29,944
1089,4	2,278
1089,8	1,278
1090,2	0,278
1090,6	-5,389
1091	6,944
1091,4	10,611
1091,9	20,278
1092,3	35,278
1092,7	21,944
1093,1	-2,389
1093,5	10,944
1093,9	15,278
1094,3	37,611
1094,7	5,611
1095,1	18,944
1095,5	16,944
1096	26,611
1096,4	3,611
1096,8	15,278
1097,2	38,944
1097,6	35,278
1098	22,278
1098,4	38,944
1098,8	5,944
1099,2	19,944
1099,6	24,278
1100,1	16,611
1100,5	-0,389
1100,9	17,611
1101,3	22,278
1101,7	-4,056
1102,1	8,944
1102,5	48,611
1102,9	12,611
1103,3	17,278
1103,7	-3,389
1104,2	12,944
1104,6	-7,722
1105	25,944
1105,4	-6,056
1105,8	22,944
1106,2	26,611
1106,6	28,944
1107	0,278
1107,4	-1,389
1107,8	-0,389
1108,3	0,944
