Data from Subt2_20-18-40-348.txt Node
Date: Tue Nov 15 20:18:40 MSK 2022
User: vat
Spectrometer: MAYP114033
Trigger mode: 0
Integration Time (sec): 3,500000E-1
Scans to average: 3
Electric dark correction enabled: true
Nonlinearity correction enabled: false
Boxcar width: 0
XAxis mode: Wavelengths
Number of Pixels in Spectrum: 2068
>>>>>Begin Spectral Data<<<<<
199,4	-1,056
199,9	-0,389
200,4	-4,722
200,8	0,611
201,3	-8,722
201,8	40,611
202,2	19,611
202,7	34,944
203,2	-6,056
203,6	12,944
204,1	29,944
204,6	4,611
205	36,611
205,5	54,278
206	41,944
206,4	-2,722
206,9	1,611
207,4	5,611
207,8	23,278
208,3	24,278
208,8	2,278
209,2	26,278
209,7	14,611
210,2	-11,056
210,6	23,278
211,1	11,611
211,5	45,944
212	30,944
212,5	24,278
212,9	42,944
213,4	64,278
213,9	43,611
214,3	2,944
214,8	24,278
215,3	-9,722
215,7	30,611
216,2	24,944
216,7	12,278
217,1	-0,056
217,6	16,278
218,1	23,944
218,5	46,611
219	23,944
219,5	37,611
219,9	7,944
220,4	63,278
220,9	29,611
221,3	60,278
221,8	48,278
222,3	26,944
222,7	49,611
223,2	24,611
223,6	16,278
224,1	42,278
224,6	19,278
225	18,611
225,5	2,944
226	10,611
226,4	67,611
226,9	53,278
227,4	35,278
227,8	26,944
228,3	33,278
228,8	14,278
229,2	45,611
229,7	41,278
230,2	2,278
230,6	20,278
231,1	8,944
231,5	21,278
232	48,944
232,5	17,278
232,9	36,944
233,4	23,944
233,9	3,278
234,3	28,944
234,8	30,278
235,3	20,278
235,7	29,611
236,2	10,611
236,7	42,278
237,1	29,278
237,6	56,611
238,1	24,611
238,5	2,944
239	21,278
239,4	12,944
239,9	25,278
240,4	22,611
240,8	18,944
241,3	33,278
241,8	8,944
242,2	21,278
242,7	26,611
243,2	26,278
243,6	28,278
244,1	36,944
244,6	18,611
245	22,944
245,5	49,278
245,9	69,278
246,4	50,944
246,9	25,278
247,3	32,278
247,8	20,278
248,3	28,278
248,7	35,611
249,2	9,944
249,7	33,611
250,1	36,611
250,6	35,944
251	14,944
251,5	3,944
252	-5,722
252,4	78,278
252,9	39,944
253,4	16,278
253,8	13,278
254,3	14,944
254,8	40,611
255,2	16,944
255,7	15,278
256,1	39,611
256,6	31,278
257,1	12,944
257,5	18,944
258	-4,722
258,5	38,611
258,9	56,278
259,4	-0,389
259,9	28,611
260,3	34,944
260,8	45,944
261,2	55,944
261,7	0,611
262,2	19,944
262,6	20,278
263,1	22,611
263,6	50,611
264	13,611
264,5	34,611
264,9	50,611
265,4	37,278
265,9	35,611
266,3	33,278
266,8	11,278
267,3	31,944
267,7	27,278
268,2	18,611
268,7	16,611
269,1	37,611
269,6	28,278
270	16,944
270,5	44,944
271	14,944
271,4	-3,389
271,9	23,611
272,4	-1,056
272,8	7,278
273,3	59,278
273,7	42,278
274,2	33,611
274,7	42,944
275,1	30,278
275,6	25,944
276,1	24,944
276,5	29,611
277	33,944
277,4	20,944
277,9	34,944
278,4	34,611
278,8	31,611
279,3	-7,056
279,8	37,944
280,2	30,278
280,7	5,611
281,1	44,278
281,6	18,944
282,1	34,611
282,5	40,278
283	14,611
283,4	33,278
283,9	2,611
284,4	16,611
284,8	9,611
285,3	35,611
285,8	13,278
286,2	31,944
286,7	51,278
287,1	8,611
287,6	33,278
288,1	21,278
288,5	4,611
289	29,278
289,5	48,278
289,9	10,611
290,4	37,944
290,8	11,611
291,3	14,278
291,8	3,611
292,2	38,944
292,7	8,944
293,1	20,611
293,6	5,611
294,1	53,611
294,5	6,278
295	6,611
295,5	44,278
295,9	37,944
296,4	-0,722
296,8	6,944
297,3	15,278
297,8	25,278
298,2	30,278
298,7	9,611
299,1	41,944
299,6	55,611
300,1	10,278
300,5	39,278
301	23,278
301,5	24,278
301,9	26,278
302,4	34,278
302,8	41,278
303,3	31,944
303,8	29,278
304,2	27,611
304,7	46,611
305,1	39,944
305,6	40,944
306,1	45,944
306,5	49,611
307	19,611
307,4	8,944
307,9	19,278
308,4	28,611
308,8	16,278
309,3	28,611
309,8	18,611
310,2	31,944
310,7	33,944
311,1	11,278
311,6	-3,389
312,1	31,278
312,5	16,944
313	35,611
313,4	19,278
313,9	16,611
314,4	21,278
314,8	33,944
315,3	24,278
315,7	13,611
316,2	37,278
316,7	13,611
317,1	5,944
317,6	5,611
318	28,278
318,5	18,944
319	25,278
319,4	22,278
319,9	18,278
320,3	2,611
320,8	17,611
321,3	32,611
321,7	8,278
322,2	26,611
322,6	41,944
323,1	-12,056
323,6	29,278
324	45,278
324,5	49,278
324,9	11,278
325,4	23,944
325,9	26,944
326,3	33,611
326,8	53,278
327,2	23,611
327,7	4,278
328,2	34,278
328,6	56,944
329,1	36,278
329,5	12,278
330	17,611
330,5	17,278
330,9	20,611
331,4	16,611
331,8	37,278
332,3	10,944
332,8	39,944
333,2	23,278
333,7	14,611
334,1	9,278
334,6	16,611
335,1	40,611
335,5	62,944
336	32,278
336,4	-2,056
336,9	24,278
337,4	25,611
337,8	3,278
338,3	20,944
338,7	39,944
339,2	37,611
339,7	22,278
340,1	25,944
340,6	14,278
341	20,278
341,5	39,611
342	3,944
342,4	5,278
342,9	20,611
343,3	37,944
343,8	11,278
344,2	35,944
344,7	7,611
345,2	21,278
345,6	18,278
346,1	21,944
346,5	34,278
347	23,611
347,5	55,611
347,9	40,944
348,4	16,944
348,8	27,278
349,3	20,611
349,8	21,611
350,2	-2,389
350,7	9,611
351,1	13,944
351,6	43,611
352	13,278
352,5	67,611
353	32,278
353,4	43,278
353,9	33,611
354,3	41,278
354,8	54,944
355,3	71,944
355,7	61,611
356,2	69,611
356,6	79,278
357,1	84,278
357,5	100,944
358	88,611
358,5	91,944
358,9	124,278
359,4	180,278
359,8	170,944
360,3	188,944
360,8	199,944
361,2	208,944
361,7	260,278
362,1	263,944
362,6	292,944
363	341,611
363,5	390,611
364	447,278
364,4	474,611
364,9	514,278
365,3	537,278
365,8	604,611
366,3	617,944
366,7	662,278
367,2	700,944
367,6	719,611
368,1	757,944
368,5	759,278
369	761,611
369,5	769,611
369,9	757,944
370,4	777,278
370,8	805,278
371,3	720,944
371,7	731,278
372,2	702,611
372,7	701,944
373,1	613,278
373,6	618,278
374	591,278
374,5	560,611
374,9	516,278
375,4	459,944
375,9	490,944
376,3	466,611
376,8	438,944
377,2	426,944
377,7	393,944
378,2	394,278
378,6	365,278
379,1	389,944
379,5	345,944
380	370,944
380,4	334,611
380,9	363,944
381,4	348,944
381,8	359,278
382,3	339,944
382,7	326,944
383,2	351,944
383,6	342,611
384,1	332,944
384,6	371,611
385	346,944
385,5	366,278
385,9	371,611
386,4	350,944
386,8	380,944
387,3	371,278
387,7	409,611
388,2	412,944
388,7	409,611
389,1	389,278
389,6	423,944
390	428,278
390,5	463,278
390,9	449,278
391,4	465,611
391,9	475,944
392,3	457,944
392,8	510,944
393,2	502,611
393,7	518,611
394,1	532,611
394,6	550,278
395,1	537,611
395,5	575,278
396	616,611
396,4	635,611
396,9	638,611
397,3	657,944
397,8	655,278
398,2	656,944
398,7	695,278
399,2	706,278
399,6	732,944
400,1	808,278
400,5	761,611
401	798,944
401,4	804,278
401,9	821,278
402,4	869,278
402,8	903,278
403,3	923,944
403,7	911,278
404,2	950,278
404,6	986,278
405,1	983,611
405,5	1049,611
406	1026,278
406,5	1042,944
406,9	1071,944
407,4	1144,944
407,8	1147,278
408,3	1139,278
408,7	1206,611
409,2	1210,944
409,6	1227,278
410,1	1288,611
410,6	1325,944
411	1323,944
411,5	1359,944
411,9	1301,278
412,4	1400,944
412,8	1364,278
413,3	1449,611
413,7	1474,611
414,2	1461,611
414,7	1522,611
415,1	1532,944
415,6	1557,278
416	1600,611
416,5	1614,278
416,9	1664,278
417,4	1711,278
417,8	1738,944
418,3	1731,278
418,8	1757,278
419,2	1789,278
419,7	1840,944
420,1	1823,278
420,6	1838,278
421	1905,944
421,5	1869,611
421,9	1916,611
422,4	1956,944
422,8	2000,278
423,3	2023,944
423,8	2032,278
424,2	2067,278
424,7	2078,611
425,1	2083,611
425,6	2132,278
426	2160,611
426,5	2129,278
426,9	2176,944
427,4	2226,278
427,9	2239,278
428,3	2296,611
428,8	2285,611
429,2	2257,944
429,7	2312,944
430,1	2332,944
430,6	2335,611
431	2357,611
431,5	2374,944
431,9	2405,611
432,4	2389,611
432,8	2434,944
433,3	2473,611
433,8	2456,278
434,2	2507,944
434,7	2522,278
435,1	2535,278
435,6	2529,278
436	2530,611
436,5	2516,278
436,9	2610,944
437,4	2622,611
437,8	2558,278
438,3	2585,611
438,8	2628,944
439,2	2628,944
439,7	2650,944
440,1	2639,278
440,6	2669,611
441	2625,278
441,5	2668,944
441,9	2652,944
442,4	2720,944
442,8	2643,944
443,3	2708,611
443,7	2715,278
444,2	2702,944
444,7	2705,278
445,1	2727,611
445,6	2731,611
446	2732,611
446,5	2777,611
446,9	2776,278
447,4	2745,278
447,8	2795,944
448,3	2764,611
448,7	2785,611
449,2	2757,944
449,6	2806,611
450,1	2775,944
450,6	2756,944
451	2747,944
451,5	2749,611
451,9	2827,278
452,4	2816,944
452,8	2755,278
453,3	2823,278
453,7	2794,944
454,2	2736,278
454,6	2767,611
455,1	2781,611
455,5	2739,611
456	2781,611
456,4	2752,611
456,9	2743,611
457,3	2742,611
457,8	2777,278
458,3	2779,278
458,7	2774,944
459,2	2750,278
459,6	2736,944
460,1	2701,278
460,5	2689,944
461	2695,278
461,4	2695,278
461,9	2725,944
462,3	2687,611
462,8	2653,944
463,2	2666,611
463,7	2717,278
464,1	2597,278
464,6	2655,944
465	2681,611
465,5	2661,944
466	2618,611
466,4	2567,611
466,9	2601,611
467,3	2564,944
467,8	2565,278
468,2	2586,944
468,7	2547,611
469,1	2574,944
469,6	2558,944
470	2542,944
470,5	2483,944
470,9	2515,944
471,4	2502,944
471,8	2510,611
472,3	2485,611
472,7	2465,611
473,2	2460,278
473,6	2433,944
474,1	2432,611
474,5	2399,278
475	2452,278
475,4	2393,278
475,9	2391,611
476,4	2404,278
476,8	2420,278
477,3	2373,611
477,7	2340,944
478,2	2371,611
478,6	2345,278
479,1	2309,944
479,5	2317,944
480	2295,944
480,4	2249,944
480,9	2285,278
481,3	2255,944
481,8	2206,278
482,2	2239,278
482,7	2226,278
483,1	2188,278
483,6	2207,278
484	2165,944
484,5	2135,944
484,9	2179,611
485,4	2087,611
485,8	2144,611
486,3	2110,611
486,7	2084,944
487,2	2067,611
487,6	2089,944
488,1	2030,944
488,5	2053,944
489	2043,611
489,4	1972,611
489,9	2033,944
490,4	1995,278
490,8	1987,944
491,3	1924,278
491,7	1940,278
492,2	1941,278
492,6	1924,278
493,1	1901,944
493,5	1904,278
494	1876,944
494,4	1877,944
494,9	1844,944
495,3	1846,944
495,8	1821,611
496,2	1797,611
496,7	1788,611
497,1	1765,611
497,6	1784,944
498	1773,944
498,5	1747,944
498,9	1754,278
499,4	1720,944
499,8	1684,611
500,3	1669,278
500,7	1648,278
501,2	1699,278
501,6	1630,278
502,1	1680,944
502,5	1627,278
503	1609,278
503,4	1556,278
503,9	1666,944
504,3	1600,611
504,8	1571,611
505,2	1539,944
505,7	1546,944
506,1	1507,278
506,6	1522,278
507	1504,944
507,5	1489,611
507,9	1519,611
508,4	1524,278
508,8	1510,611
509,3	1433,611
509,7	1451,611
510,2	1423,611
510,6	1415,611
511,1	1426,944
511,5	1420,278
512	1413,944
512,4	1360,611
512,9	1387,611
513,3	1401,944
513,8	1343,278
514,2	1322,944
514,7	1311,611
515,1	1348,278
515,6	1320,611
516	1297,611
516,5	1308,278
516,9	1302,944
517,4	1275,611
517,8	1250,278
518,3	1300,944
518,7	1218,611
519,2	1237,278
519,6	1233,944
520,1	1199,944
520,5	1241,278
521	1197,278
521,4	1204,278
521,9	1171,944
522,3	1173,944
522,8	1134,944
523,2	1137,944
523,7	1117,278
524,1	1116,944
524,6	1117,611
525	1068,944
525,5	1107,278
525,9	1113,278
526,4	1106,611
526,8	1052,278
527,3	1086,278
527,7	1045,611
528,2	1038,278
528,6	1045,944
529,1	1016,278
529,5	1047,278
530	1004,944
530,4	1006,278
530,9	1029,278
531,3	982,278
531,8	950,611
532,2	956,611
532,6	958,278
533,1	952,278
533,5	898,944
534	905,611
534,4	923,944
534,9	912,278
535,3	891,611
535,8	901,944
536,2	889,278
536,7	890,944
537,1	868,944
537,6	880,611
538	872,944
538,5	834,611
538,9	834,278
539,4	864,611
539,8	841,944
540,3	833,278
540,7	827,944
541,2	806,944
541,6	776,278
542,1	811,278
542,5	809,944
543	787,611
543,4	760,278
543,9	762,944
544,3	770,944
544,8	733,611
545,2	714,611
545,7	714,944
546,1	746,278
546,5	697,278
547	702,278
547,4	723,278
547,9	699,944
548,3	691,611
548,8	656,611
549,2	705,611
549,7	687,611
550,1	641,944
550,6	661,278
551	657,944
551,5	631,278
551,9	652,611
552,4	656,944
552,8	599,944
553,3	628,278
553,7	608,611
554,2	634,944
554,6	598,278
555,1	593,611
555,5	610,278
555,9	572,611
556,4	574,944
556,8	608,944
557,3	596,944
557,7	556,611
558,2	603,278
558,6	552,611
559,1	522,944
559,5	563,611
560	536,278
560,4	591,944
560,9	534,944
561,3	500,611
561,8	543,278
562,2	531,944
562,7	502,944
563,1	495,278
563,6	470,278
564	510,278
564,4	482,944
564,9	487,944
565,3	515,944
565,8	471,944
566,2	485,944
566,7	498,944
567,1	476,278
567,6	444,278
568	467,611
568,5	451,611
568,9	450,278
569,4	462,278
569,8	483,278
570,3	417,611
570,7	428,944
571,1	427,944
571,6	452,944
572	428,278
572,5	423,611
572,9	412,611
573,4	407,611
573,8	403,278
574,3	393,278
574,7	407,944
575,2	380,611
575,6	385,944
576,1	406,611
576,5	397,278
576,9	389,611
577,4	386,278
577,8	344,944
578,3	385,611
578,7	378,278
579,2	372,278
579,6	365,611
580,1	346,611
580,5	334,944
581	355,944
581,4	370,278
581,9	327,611
582,3	312,944
582,7	329,278
583,2	331,278
583,6	333,944
584,1	327,278
584,5	313,611
585	330,611
585,4	322,278
585,9	306,611
586,3	286,944
586,8	337,944
587,2	310,278
587,6	309,278
588,1	282,278
588,5	279,278
589	279,944
589,4	293,278
589,9	266,611
590,3	292,278
590,8	261,611
591,2	288,611
591,7	297,944
592,1	249,611
592,5	271,944
593	258,611
593,4	280,611
593,9	269,278
594,3	306,944
594,8	271,611
595,2	236,278
595,7	244,611
596,1	261,611
596,6	259,278
597	237,611
597,4	218,278
597,9	214,944
598,3	223,944
598,8	238,944
599,2	235,944
599,7	233,611
600,1	235,611
600,6	237,278
601	235,944
601,4	222,611
601,9	233,944
602,3	229,611
602,8	226,944
603,2	198,278
603,7	230,944
604,1	208,278
604,6	242,944
605	239,278
605,4	202,944
605,9	218,611
606,3	214,278
606,8	232,944
607,2	204,944
607,7	184,611
608,1	209,278
608,6	177,278
609	186,611
609,4	180,278
609,9	189,944
610,3	164,944
610,8	175,611
611,2	186,278
611,7	186,944
612,1	206,944
612,6	192,278
613	195,944
613,4	185,611
613,9	178,944
614,3	174,278
614,8	174,611
615,2	180,611
615,7	172,944
616,1	199,611
616,6	136,944
617	161,944
617,4	136,278
617,9	150,611
618,3	182,611
618,8	157,278
619,2	171,944
619,7	182,944
620,1	157,278
620,5	152,278
621	167,278
621,4	141,611
621,9	183,944
622,3	170,611
622,8	144,944
623,2	153,278
623,6	140,611
624,1	134,944
624,5	91,278
625	157,611
625,4	103,278
625,9	134,944
626,3	141,611
626,8	135,611
627,2	122,611
627,6	154,944
628,1	141,611
628,5	129,278
629	140,611
629,4	122,611
629,9	135,611
630,3	118,944
630,7	150,944
631,2	147,611
631,6	121,611
632,1	150,611
632,5	128,944
633	117,278
633,4	125,944
633,8	154,611
634,3	126,278
634,7	101,278
635,2	86,278
635,6	104,278
636,1	103,278
636,5	110,611
636,9	97,278
637,4	112,278
637,8	87,611
638,3	88,278
638,7	111,278
639,2	124,278
639,6	85,278
640	97,278
640,5	130,944
640,9	123,278
641,4	120,278
641,8	122,611
642,2	127,611
642,7	95,278
643,1	77,278
643,6	84,278
644	96,944
644,5	106,611
644,9	104,944
645,3	96,944
645,8	90,944
646,2	89,611
646,7	86,278
647,1	110,611
647,6	77,611
648	91,944
648,4	109,278
648,9	102,278
649,3	81,611
649,8	95,278
650,2	93,944
650,6	78,278
651,1	67,944
651,5	71,611
652	99,611
652,4	119,278
652,9	74,611
653,3	85,278
653,7	68,611
654,2	73,611
654,6	75,278
655,1	45,944
655,5	81,944
655,9	88,944
656,4	68,278
656,8	88,278
657,3	74,611
657,7	46,944
658,2	90,611
658,6	88,611
659	49,611
659,5	84,944
659,9	47,944
660,4	56,944
660,8	92,278
661,2	101,278
661,7	95,611
662,1	39,944
662,6	60,278
663	46,611
663,4	53,278
663,9	61,944
664,3	62,944
664,8	60,278
665,2	63,944
665,6	69,944
666,1	99,944
666,5	65,611
667	41,944
667,4	81,278
667,9	65,944
668,3	62,611
668,7	58,278
669,2	112,611
669,6	48,944
670,1	61,278
670,5	57,944
670,9	77,611
671,4	75,944
671,8	60,278
672,3	85,278
672,7	94,611
673,1	53,944
673,6	39,944
674	47,278
674,5	48,944
674,9	63,278
675,3	85,278
675,8	87,944
676,2	52,944
676,7	17,278
677,1	79,278
677,5	62,278
678	70,944
678,4	43,278
678,9	51,278
679,3	33,944
679,7	57,278
680,2	57,944
680,6	60,611
681,1	58,278
681,5	63,611
681,9	70,944
682,4	96,611
682,8	28,611
683,3	50,278
683,7	57,611
684,1	26,611
684,6	40,278
685	29,611
685,5	19,611
685,9	41,611
686,3	45,611
686,8	54,611
687,2	65,278
687,7	62,611
688,1	39,278
688,5	38,944
689	41,944
689,4	36,944
689,9	51,278
690,3	31,944
690,7	34,611
691,2	54,611
691,6	41,611
692	64,278
692,5	25,278
692,9	47,611
693,4	28,278
693,8	43,611
694,2	34,944
694,7	70,611
695,1	67,944
695,6	33,944
696	44,278
696,4	65,944
696,9	37,611
697,3	37,278
697,8	39,611
698,2	46,278
698,6	77,278
699,1	27,611
699,5	8,611
699,9	2,278
700,4	22,611
700,8	54,278
701,3	26,944
701,7	39,278
702,1	24,278
702,6	60,278
703	31,611
703,5	55,944
703,9	25,611
704,3	31,278
704,8	41,611
705,2	55,611
705,6	43,944
706,1	44,944
706,5	59,278
707	27,944
707,4	45,611
707,8	39,944
708,3	7,611
708,7	47,944
709,2	73,944
709,6	46,944
710	61,611
710,5	41,944
710,9	74,944
711,3	37,944
711,8	19,611
712,2	53,611
712,7	51,278
713,1	2,278
713,5	36,944
714	43,278
714,4	27,611
714,8	27,278
715,3	10,278
715,7	71,278
716,2	52,611
716,6	64,944
717	59,278
717,5	42,278
717,9	32,611
718,3	26,611
718,8	41,944
719,2	43,611
719,7	36,611
720,1	46,944
720,5	63,611
721	37,944
721,4	31,611
721,8	14,278
722,3	32,611
722,7	64,278
723,2	24,944
723,6	19,611
724	22,944
724,5	33,611
724,9	42,611
725,3	4,611
725,8	20,611
726,2	40,944
726,7	34,944
727,1	20,944
727,5	37,944
728	27,611
728,4	38,944
728,8	42,611
729,3	37,944
729,7	64,944
730,1	20,278
730,6	31,611
731	26,611
731,5	37,278
731,9	33,278
732,3	17,611
732,8	26,944
733,2	53,611
733,6	27,944
734,1	35,944
734,5	60,278
734,9	48,944
735,4	32,944
735,8	49,611
736,3	1,944
736,7	18,944
737,1	46,944
737,6	41,944
738	33,611
738,4	38,944
738,9	53,611
739,3	40,611
739,7	6,278
740,2	32,944
740,6	56,278
741,1	34,944
741,5	25,278
741,9	-14,056
742,4	29,944
742,8	24,944
743,2	33,278
743,7	42,944
744,1	53,278
744,5	54,944
745	41,611
745,4	25,278
745,8	33,944
746,3	31,611
746,7	52,944
747,2	43,611
747,6	16,278
748	39,278
748,5	11,944
748,9	23,611
749,3	27,611
749,8	45,611
750,2	31,944
750,6	19,611
751,1	39,278
751,5	36,611
751,9	26,611
752,4	45,611
752,8	12,611
753,3	28,611
753,7	47,611
754,1	30,278
754,6	12,611
755	0,944
755,4	41,278
755,9	18,611
756,3	48,611
756,7	29,611
757,2	12,611
757,6	43,944
758	69,944
758,5	33,944
758,9	35,611
759,3	27,278
759,8	-6,389
760,2	20,944
760,6	5,611
761,1	21,278
761,5	10,278
761,9	28,944
762,4	27,944
762,8	47,611
763,3	34,944
763,7	42,278
764,1	12,611
764,6	6,611
765	36,611
765,4	14,944
765,9	51,611
766,3	7,278
766,7	32,278
767,2	9,944
767,6	43,611
768	34,278
768,5	7,278
768,9	24,611
769,3	30,278
769,8	27,278
770,2	58,944
770,6	32,611
771,1	45,278
771,5	27,611
771,9	1,278
772,4	5,611
772,8	12,611
773,2	15,278
773,7	51,944
774,1	-10,722
774,5	24,944
775	42,611
775,4	6,278
775,8	10,944
776,3	12,944
776,7	71,611
777,1	46,611
777,6	12,944
778	15,944
778,4	31,611
778,9	12,944
779,3	15,278
779,7	22,611
780,2	47,944
780,6	17,278
781	44,944
781,5	4,278
781,9	25,278
782,3	30,278
782,8	-9,389
783,2	37,278
783,6	23,611
784,1	38,944
784,5	35,944
784,9	42,278
785,4	47,611
785,8	39,278
786,2	5,278
786,7	32,944
787,1	14,944
787,5	14,944
788	18,611
788,4	32,944
788,8	23,278
789,3	4,944
789,7	43,944
790,1	12,278
790,6	6,944
791	32,611
791,4	2,278
791,9	5,944
792,3	20,278
792,7	21,611
793,2	34,944
793,6	17,278
794	12,944
794,5	47,278
794,9	28,944
795,3	44,611
795,8	37,944
796,2	19,278
796,6	43,944
797,1	44,944
797,5	35,278
797,9	34,278
798,4	31,278
798,8	60,611
799,2	4,278
799,7	39,944
800,1	-16,722
800,5	21,278
801	22,944
801,4	35,278
801,8	28,611
802,2	42,278
802,7	37,611
803,1	36,278
803,5	-10,389
804	24,278
804,4	11,611
804,8	19,944
805,3	38,944
805,7	35,611
806,1	-24,389
806,6	72,278
807	50,278
807,4	35,611
807,9	13,278
808,3	45,944
808,7	24,611
809,2	12,278
809,6	28,944
810	18,278
810,4	46,944
810,9	24,611
811,3	0,944
811,7	35,944
812,2	37,944
812,6	31,611
813	16,611
813,5	12,944
813,9	10,611
814,3	22,944
814,8	33,611
815,2	30,944
815,6	19,944
816,1	8,278
816,5	7,944
816,9	27,944
817,3	39,278
817,8	34,611
818,2	38,944
818,6	21,944
819,1	12,278
819,5	39,278
819,9	-3,722
820,4	24,611
820,8	33,278
821,2	28,278
821,7	-12,389
822,1	4,278
822,5	24,278
822,9	41,611
823,4	-29,056
823,8	38,944
824,2	12,611
824,7	29,278
825,1	28,944
825,5	39,278
826	18,944
826,4	40,944
826,8	36,611
827,3	52,278
827,7	28,944
828,1	-5,722
828,5	36,944
829	-1,389
829,4	24,278
829,8	41,944
830,3	56,278
830,7	31,611
831,1	41,944
831,6	6,944
832	38,611
832,4	35,278
832,8	36,944
833,3	44,278
833,7	28,611
834,1	20,611
834,6	32,278
835	27,944
835,4	34,944
835,8	12,278
836,3	42,944
836,7	41,278
837,1	34,944
837,6	23,944
838	24,278
838,4	29,611
838,9	-20,389
839,3	-0,722
839,7	14,944
840,1	22,278
840,6	39,278
841	9,278
841,4	52,278
841,9	24,944
842,3	15,278
842,7	-14,056
843,1	58,278
843,6	15,278
844	18,944
844,4	30,611
844,9	41,944
845,3	28,278
845,7	7,611
846,2	18,944
846,6	34,611
847	33,944
847,4	40,944
847,9	29,278
848,3	-5,056
848,7	30,944
849,2	15,278
849,6	8,944
850	20,278
850,4	7,611
850,9	17,278
851,3	7,278
851,7	15,944
852,2	23,278
852,6	32,278
853	48,944
853,4	4,944
853,9	40,944
854,3	34,944
854,7	42,611
855,2	22,944
855,6	8,944
856	-9,389
856,4	35,278
856,9	14,611
857,3	6,944
857,7	18,944
858,2	23,611
858,6	15,278
859	27,944
859,4	9,944
859,9	25,278
860,3	5,944
860,7	9,278
861,1	0,278
861,6	27,278
862	56,944
862,4	55,944
862,9	29,611
863,3	49,611
863,7	30,278
864,1	27,944
864,6	11,611
865	12,611
865,4	16,944
865,9	21,278
866,3	4,944
866,7	3,611
867,1	-10,056
867,6	23,944
868	-24,389
868,4	25,278
868,8	36,944
869,3	27,944
869,7	24,611
870,1	4,611
870,6	28,944
871	19,278
871,4	34,278
871,8	22,611
872,3	221,944
872,7	23,944
873,1	17,278
873,5	-11,056
874	26,611
874,4	43,278
874,8	27,944
875,3	10,944
875,7	34,944
876,1	28,278
876,5	35,944
877	43,944
877,4	10,944
877,8	10,278
878,2	3,278
878,7	14,278
879,1	30,611
879,5	31,278
879,9	-19,056
880,4	17,611
880,8	48,278
881,2	23,278
881,7	38,278
882,1	20,611
882,5	60,278
882,9	17,611
883,4	13,278
883,8	-4,389
884,2	8,611
884,6	28,944
885,1	38,278
885,5	15,611
885,9	5,611
886,3	53,611
886,8	10,611
887,2	20,278
887,6	12,944
888	35,278
888,5	24,611
888,9	15,278
889,3	-10,389
889,8	40,278
890,2	9,278
890,6	38,944
891	-11,389
891,5	35,611
891,9	30,611
892,3	32,278
892,7	44,944
893,2	33,611
893,6	54,611
894	15,944
894,4	15,944
894,9	27,278
895,3	37,611
895,7	44,944
896,1	20,278
896,6	27,611
897	31,278
897,4	-0,056
897,8	22,278
898,3	27,944
898,7	5,278
899,1	24,278
899,5	11,944
900	6,611
900,4	22,278
900,8	8,278
901,2	29,278
901,7	18,944
902,1	23,278
902,5	38,611
902,9	14,944
903,4	46,611
903,8	18,278
904,2	39,611
904,6	38,611
905,1	25,944
905,5	11,278
905,9	52,278
906,3	23,278
906,8	17,944
907,2	21,278
907,6	10,611
908	49,944
908,5	31,278
908,9	38,611
909,3	6,944
909,7	-1,056
910,2	32,278
910,6	36,944
911	33,278
911,4	22,944
911,9	29,278
912,3	-3,056
912,7	52,278
913,1	30,611
913,6	53,944
914	30,944
914,4	22,611
914,8	5,944
915,3	33,611
915,7	21,611
916,1	11,944
916,5	25,611
916,9	63,278
917,4	45,278
917,8	28,611
918,2	45,611
918,6	29,944
919,1	21,944
919,5	18,278
919,9	40,611
920,3	16,944
920,8	-5,389
921,2	9,278
921,6	41,944
922	35,944
922,5	38,944
922,9	6,611
923,3	24,944
923,7	39,944
924,2	23,278
924,6	14,278
925	27,944
925,4	20,278
925,8	27,278
926,3	22,611
926,7	25,944
927,1	66,278
927,5	10,944
928	43,611
928,4	-4,389
928,8	25,278
929,2	-3,056
929,7	-6,722
930,1	23,611
930,5	24,611
930,9	11,278
931,3	10,611
931,8	23,278
932,2	9,278
932,6	15,278
933	39,611
933,5	17,278
933,9	6,611
934,3	1,944
934,7	37,611
935,2	6,944
935,6	16,278
936	-3,056
936,4	62,278
936,8	50,944
937,3	33,944
937,7	41,611
938,1	13,278
938,5	38,611
939	13,611
939,4	26,944
939,8	18,611
940,2	-10,056
940,6	42,944
941,1	12,278
941,5	42,278
941,9	9,944
942,3	10,611
942,8	40,278
943,2	45,611
943,6	9,611
944	-13,056
944,4	6,278
944,9	51,611
945,3	16,611
945,7	19,278
946,1	23,278
946,6	23,278
947	54,278
947,4	32,611
947,8	35,278
948,2	44,278
948,7	8,611
949,1	13,944
949,5	29,611
949,9	32,944
950,3	23,278
950,8	26,611
951,2	42,611
951,6	33,611
952	20,944
952,5	42,944
952,9	-14,389
953,3	2,944
953,7	15,944
954,1	55,611
954,6	29,944
955	32,944
955,4	-6,056
955,8	41,278
956,2	30,944
956,7	21,611
957,1	11,944
957,5	32,944
957,9	-16,722
958,3	38,278
958,8	26,944
959,2	35,611
959,6	44,944
960	32,944
960,5	21,944
960,9	-11,389
961,3	28,278
961,7	14,611
962,1	17,944
962,6	13,278
963	19,944
963,4	31,611
963,8	30,278
964,2	-8,722
964,7	53,944
965,1	23,278
965,5	-1,389
965,9	42,278
966,3	57,611
966,8	16,944
967,2	27,611
967,6	18,278
968	39,278
968,4	24,611
968,9	38,944
969,3	1,278
969,7	38,611
970,1	21,611
970,5	74,944
971	44,944
971,4	50,611
971,8	0,611
972,2	-9,722
972,6	16,278
973,1	38,944
973,5	18,944
973,9	14,278
974,3	50,611
974,7	57,278
975,2	-13,722
975,6	25,611
976	31,611
976,4	28,278
976,8	23,944
977,3	0,611
977,7	48,611
978,1	14,944
978,5	35,611
978,9	21,611
979,4	17,611
979,8	39,611
980,2	15,278
980,6	21,944
981	-8,389
981,5	23,278
981,9	16,278
982,3	6,278
982,7	29,278
983,1	42,611
983,6	7,944
984	44,611
984,4	28,278
984,8	25,611
985,2	45,278
985,6	-19,389
986,1	39,278
986,5	30,944
986,9	10,278
987,3	40,278
987,7	14,278
988,2	-6,056
988,6	-4,056
989	50,611
989,4	22,278
989,8	6,278
990,3	30,944
990,7	19,944
991,1	54,278
991,5	7,611
991,9	24,278
992,3	67,611
992,8	53,944
993,2	53,944
993,6	21,944
994	40,611
994,4	6,278
994,9	20,944
995,3	53,611
995,7	34,278
996,1	8,944
996,5	7,278
996,9	8,278
997,4	21,944
997,8	16,611
998,2	54,278
998,6	31,278
999	19,278
999,5	52,278
999,9	41,611
1000,3	9,944
1000,7	53,944
1001,1	57,944
1001,5	0,611
1002	18,611
1002,4	48,611
1002,8	38,278
1003,2	2,611
1003,6	-1,056
1004	44,944
1004,5	40,944
1004,9	34,278
1005,3	36,611
1005,7	19,611
1006,1	20,278
1006,6	36,278
1007	10,944
1007,4	19,611
1007,8	13,278
1008,2	21,278
1008,6	23,278
1009,1	28,944
1009,5	20,611
1009,9	24,611
1010,3	40,944
1010,7	22,611
1011,1	12,611
1011,6	47,944
1012	46,611
1012,4	37,278
1012,8	56,611
1013,2	-1,722
1013,6	32,944
1014,1	34,944
1014,5	-4,722
1014,9	41,278
1015,3	37,278
1015,7	17,278
1016,1	22,944
1016,6	29,944
1017	19,278
1017,4	-3,722
1017,8	4,278
1018,2	33,944
1018,6	25,278
1019,1	32,278
1019,5	31,944
1019,9	42,278
1020,3	13,611
1020,7	3,611
1021,1	50,278
1021,6	25,611
1022	41,944
1022,4	9,611
1022,8	13,278
1023,2	44,611
1023,6	41,944
1024,1	49,611
1024,5	-0,056
1024,9	20,944
1025,3	27,611
1025,7	35,611
1026,1	21,944
1026,6	16,944
1027	-2,056
1027,4	33,944
1027,8	51,278
1028,2	30,611
1028,6	52,944
1029	20,611
1029,5	43,944
1029,9	30,944
1030,3	15,944
1030,7	63,611
1031,1	22,278
1031,5	7,611
1032	18,278
1032,4	45,944
1032,8	38,611
1033,2	70,944
1033,6	0,611
1034	30,944
1034,4	26,944
1034,9	38,944
1035,3	31,944
1035,7	49,944
1036,1	33,278
1036,5	32,278
1036,9	37,944
1037,4	32,944
1037,8	35,611
1038,2	40,611
1038,6	40,611
1039	61,944
1039,4	15,944
1039,8	25,278
1040,3	24,611
1040,7	45,611
1041,1	24,944
1041,5	30,278
1041,9	42,611
1042,3	37,944
1042,7	19,944
1043,2	20,278
1043,6	55,944
1044	34,278
1044,4	37,278
1044,8	42,278
1045,2	49,944
1045,6	39,278
1046,1	16,611
1046,5	43,611
1046,9	47,944
1047,3	59,611
1047,7	38,944
1048,1	8,278
1048,5	26,278
1049	30,278
1049,4	46,611
1049,8	29,278
1050,2	-3,389
1050,6	28,944
1051	35,611
1051,4	38,611
1051,9	13,611
1052,3	-1,389
1052,7	21,278
1053,1	22,944
1053,5	4,278
1053,9	36,278
1054,3	30,944
1054,8	22,278
1055,2	31,944
1055,6	37,278
1056	-5,389
1056,4	16,278
1056,8	42,611
1057,2	38,611
1057,6	34,611
1058,1	64,944
1058,5	25,278
1058,9	36,278
1059,3	24,278
1059,7	32,944
1060,1	5,278
1060,5	50,944
1061	61,611
1061,4	35,944
1061,8	45,611
1062,2	0,611
1062,6	17,944
1063	57,278
1063,4	66,944
1063,8	23,944
1064,3	47,611
1064,7	20,944
1065,1	37,944
1065,5	24,944
1065,9	53,611
1066,3	-17,389
1066,7	43,278
1067,1	40,611
1067,6	76,611
1068	36,944
1068,4	10,278
1068,8	23,611
1069,2	55,278
1069,6	34,278
1070	14,944
1070,4	22,278
1070,9	45,944
1071,3	32,611
1071,7	42,278
1072,1	41,611
1072,5	17,278
1072,9	10,944
1073,3	34,611
1073,7	12,944
1074,2	0,611
1074,6	15,611
1075	27,278
1075,4	18,611
1075,8	37,278
1076,2	22,611
1076,6	30,278
1077	21,278
1077,5	18,944
1077,9	53,611
1078,3	45,278
1078,7	3,278
1079,1	12,278
1079,5	-0,722
1079,9	54,611
1080,3	18,278
1080,7	8,944
1081,2	15,944
1081,6	12,278
1082	26,944
1082,4	7,944
1082,8	-9,722
1083,2	31,944
1083,6	-7,722
1084	77,944
1084,5	37,611
1084,9	16,278
1085,3	75,278
1085,7	27,611
1086,1	21,944
1086,5	34,278
1086,9	26,611
1087,3	33,278
1087,7	15,611
1088,2	8,944
1088,6	7,611
1089	38,278
1089,4	-11,389
1089,8	13,944
1090,2	21,611
1090,6	1,944
1091	20,944
1091,4	45,278
1091,9	41,278
1092,3	40,611
1092,7	22,611
1093,1	12,611
1093,5	2,944
1093,9	33,944
1094,3	35,944
1094,7	28,278
1095,1	12,944
1095,5	18,278
1096	36,611
1096,4	20,278
1096,8	35,944
1097,2	15,944
1097,6	22,278
1098	17,944
1098,4	40,278
1098,8	39,944
1099,2	8,944
1099,6	27,278
1100,1	22,611
1100,5	31,611
1100,9	15,611
1101,3	7,944
1101,7	3,278
1102,1	23,278
1102,5	33,611
1102,9	35,944
1103,3	18,278
1103,7	19,944
1104,2	41,278
1104,6	23,611
1105	16,278
1105,4	4,944
1105,8	13,278
1106,2	30,611
1106,6	24,611
1107	-0,389
1107,4	-0,722
1107,8	0,944
1108,3	4,278
