Data from Subt2_20-23-20-674.txt Node
Date: Tue Nov 15 20:23:20 MSK 2022
User: vat
Spectrometer: MAYP114033
Trigger mode: 0
Integration Time (sec): 3,500000E-1
Scans to average: 3
Electric dark correction enabled: true
Nonlinearity correction enabled: false
Boxcar width: 0
XAxis mode: Wavelengths
Number of Pixels in Spectrum: 2068
>>>>>Begin Spectral Data<<<<<
199,4	2,333
199,9	-1,667
200,4	-1,667
200,8	3
201,3	16,667
201,8	40,333
202,2	3,667
202,7	48,333
203,2	1,667
203,6	7
204,1	27,667
204,6	5,333
205	27,333
205,5	34,333
206	49,667
206,4	24,667
206,9	25
207,4	18,333
207,8	34,667
208,3	4
208,8	49
209,2	45,333
209,7	48,333
210,2	-7
210,6	36
211,1	-2
211,5	24
212	18,333
212,5	34
212,9	23
213,4	35,667
213,9	22,667
214,3	5,667
214,8	18,333
215,3	14,333
215,7	24,333
216,2	26
216,7	27,667
217,1	25,333
217,6	39
218,1	34,333
218,5	67,333
219	38,333
219,5	36,667
219,9	28
220,4	52,333
220,9	47,667
221,3	68
221,8	33,333
222,3	26
222,7	34,667
223,2	11,667
223,6	43
224,1	46,667
224,6	26,667
225	29
225,5	6
226	-5,333
226,4	36
226,9	27,667
227,4	60
227,8	20,333
228,3	36,667
228,8	8,333
229,2	40,667
229,7	34
230,2	12,667
230,6	0
231,1	8
231,5	25,667
232	32,333
232,5	26,667
232,9	32
233,4	21
233,9	6,667
234,3	30,667
234,8	58
235,3	22
235,7	54,667
236,2	-1,667
236,7	41
237,1	31,667
237,6	53,667
238,1	37,667
238,5	20,667
239	19,333
239,4	58,333
239,9	0,333
240,4	35,333
240,8	36,333
241,3	45,667
241,8	-9
242,2	22,333
242,7	21,667
243,2	8
243,6	49,667
244,1	15,333
244,6	19,333
245	28,333
245,5	51,667
245,9	42,333
246,4	56,667
246,9	40
247,3	47,333
247,8	13,667
248,3	34,667
248,7	53,667
249,2	15,667
249,7	38,667
250,1	29,667
250,6	22
251	4,333
251,5	28
252	23
252,4	57,667
252,9	42
253,4	33,333
253,8	-1
254,3	16,333
254,8	35,667
255,2	20,333
255,7	20,333
256,1	48
256,6	11
257,1	24,667
257,5	13,333
258	19,333
258,5	37,667
258,9	59
259,4	24,333
259,9	43,333
260,3	46
260,8	41
261,2	26
261,7	35
262,2	18,667
262,6	21
263,1	22,667
263,6	28,667
264	49
264,5	-1
264,9	40,333
265,4	50,333
265,9	6
266,3	44,333
266,8	25,333
267,3	46,333
267,7	33
268,2	20,333
268,7	9,667
269,1	46,667
269,6	11,667
270	42,333
270,5	25,333
271	37
271,4	30,667
271,9	30,333
272,4	15
272,8	65
273,3	38,667
273,7	45
274,2	18,333
274,7	39
275,1	31,333
275,6	29
276,1	30,667
276,5	35
277	54,333
277,4	32,667
277,9	79
278,4	44
278,8	57,667
279,3	-9,333
279,8	23,333
280,2	32
280,7	30
281,1	38,667
281,6	26
282,1	18,667
282,5	36,667
283	13
283,4	67,333
283,9	-0,333
284,4	36
284,8	45
285,3	24,333
285,8	36
286,2	30,333
286,7	34,333
287,1	26,333
287,6	42,333
288,1	37
288,5	14
289	24
289,5	64
289,9	-14
290,4	37
290,8	40,333
291,3	27,333
291,8	32
292,2	44
292,7	10
293,1	27
293,6	16,667
294,1	44
294,5	5
295	35
295,5	53,333
295,9	39,667
296,4	7,667
296,8	6,333
297,3	11,667
297,8	31
298,2	15,333
298,7	3
299,1	9,667
299,6	59,667
300,1	18,333
300,5	36,333
301	32
301,5	22
301,9	4,333
302,4	52,333
302,8	43,333
303,3	20,667
303,8	23,667
304,2	26
304,7	72,333
305,1	34
305,6	70,667
306,1	61,333
306,5	31
307	43,667
307,4	45,333
307,9	34,333
308,4	25
308,8	8
309,3	54,333
309,8	37,333
310,2	30,333
310,7	13
311,1	22
311,6	11
312,1	22
312,5	25
313	35,333
313,4	41
313,9	34,333
314,4	40
314,8	37,333
315,3	24
315,7	15,333
316,2	50
316,7	10,667
317,1	22,333
317,6	17
318	24,333
318,5	17,333
319	28,667
319,4	12,667
319,9	27,333
320,3	38
320,8	20,333
321,3	26,333
321,7	41,333
322,2	16
322,6	49,667
323,1	19,333
323,6	24
324	15,667
324,5	27
324,9	40,667
325,4	18
325,9	17
326,3	36
326,8	47
327,2	29,333
327,7	34,667
328,2	24,333
328,6	32
329,1	35
329,5	19,333
330	3,333
330,5	41,667
330,9	23
331,4	15,667
331,8	16,667
332,3	24,667
332,8	27,333
333,2	21,667
333,7	18,667
334,1	14
334,6	19,667
335,1	70,333
335,5	27,333
336	24,333
336,4	17
336,9	-0,667
337,4	51
337,8	5,667
338,3	32
338,7	51
339,2	42
339,7	40,667
340,1	19,667
340,6	40
341	37
341,5	50,667
342	33,667
342,4	42,333
342,9	28,333
343,3	15,667
343,8	39
344,2	48
344,7	31
345,2	36,333
345,6	24,667
346,1	20
346,5	33,667
347	12,333
347,5	104
347,9	23,667
348,4	36,333
348,8	13,333
349,3	21,333
349,8	62,333
350,2	21,333
350,7	50
351,1	43,667
351,6	65,333
352	21,333
352,5	61
353	63
353,4	99,667
353,9	74,333
354,3	95,333
354,8	137,333
355,3	146,667
355,7	158
356,2	186,667
356,6	209,667
357,1	221
357,5	299
358	307
358,5	353,333
358,9	434,667
359,4	466,333
359,8	548,667
360,3	597
360,8	681,667
361,2	814,333
361,7	910
362,1	1030
362,6	1169
363	1274,667
363,5	1453,667
364	1611,667
364,4	1770,333
364,9	1908,667
365,3	2058
365,8	2217,333
366,3	2386
366,7	2495
367,2	2632
367,6	2717,667
368,1	2766,667
368,5	2838,333
369	2857,667
369,5	2862,667
369,9	2809
370,4	2815,667
370,8	2748,333
371,3	2662
371,7	2563,333
372,2	2413,333
372,7	2362,667
373,1	2208
373,6	2056,333
374	1920
374,5	1780
374,9	1673
375,4	1569,667
375,9	1427,667
376,3	1397,667
376,8	1256,667
377,2	1145,333
377,7	1070
378,2	977
378,6	876,667
379,1	817,667
379,5	751,667
380	710
380,4	662,333
380,9	632,667
381,4	563
381,8	548,667
382,3	499,667
382,7	423,667
383,2	428
383,6	395,333
384,1	386,667
384,6	391,667
385	352,333
385,5	343,667
385,9	317
386,4	284,667
386,8	306
387,3	261
387,7	250
388,2	272,333
388,7	260,667
389,1	192,333
389,6	209,667
390	227,333
390,5	236,333
390,9	182
391,4	219,333
391,9	188
392,3	191,333
392,8	193,667
393,2	204
393,7	192
394,1	181,333
394,6	208,667
395,1	165,333
395,5	210
396	190,667
396,4	219,333
396,9	209,333
397,3	185
397,8	171,333
398,2	209,667
398,7	236,667
399,2	241,333
399,6	213,333
400,1	261,333
400,5	224
401	253
401,4	219,333
401,9	273,333
402,4	259,333
402,8	261,667
403,3	271
403,7	268
404,2	287,667
404,6	332,667
405,1	290
405,5	305,667
406	307,667
406,5	307
406,9	329
407,4	364
407,8	354
408,3	320
408,7	331,333
409,2	331,667
409,6	365,333
410,1	372,333
410,6	404
411	399,333
411,5	411,333
411,9	361,667
412,4	423
412,8	419
413,3	435
413,7	414,667
414,2	420
414,7	437,333
415,1	456,667
415,6	435,333
416	475,667
416,5	474,667
416,9	466,333
417,4	492,333
417,8	502
418,3	513,667
418,8	530,333
419,2	513
419,7	521,333
420,1	545,667
420,6	524,333
421	524,667
421,5	526,667
421,9	545
422,4	565,333
422,8	532
423,3	570,333
423,8	553,667
424,2	622
424,7	608
425,1	581
425,6	607
426	611
426,5	621
426,9	620
427,4	646,667
427,9	637,333
428,3	632,333
428,8	631,333
429,2	615
429,7	660,333
430,1	623,333
430,6	650
431	653
431,5	684
431,9	669
432,4	652,667
432,8	663,333
433,3	705
433,8	674,667
434,2	709,667
434,7	708
435,1	715
435,6	724,667
436	685,333
436,5	697,333
436,9	715
437,4	716,333
437,8	687
438,3	735,667
438,8	693,667
439,2	730,333
439,7	740,667
440,1	726
440,6	700,667
441	731,333
441,5	685,667
441,9	740
442,4	705,333
442,8	739,667
443,3	756,667
443,7	734
444,2	749,333
444,7	734
445,1	768
445,6	760
446	753,333
446,5	779,667
446,9	747
447,4	764
447,8	739
448,3	760
448,7	757,333
449,2	761,333
449,6	784,667
450,1	749
450,6	751,667
451	760,333
451,5	758,667
451,9	778
452,4	787,333
452,8	731,333
453,3	782
453,7	781,667
454,2	728
454,6	769,667
455,1	761,333
455,5	743,333
456	747
456,4	751,333
456,9	763
457,3	760
457,8	744
458,3	736
458,7	747
459,2	740,667
459,6	743,333
460,1	725,333
460,5	750,667
461	744,333
461,4	724
461,9	764,333
462,3	711,333
462,8	734
463,2	717
463,7	741,667
464,1	713,333
464,6	726
465	731
465,5	709
466	672
466,4	658,333
466,9	712,667
467,3	715,333
467,8	662,333
468,2	684
468,7	680,667
469,1	701,333
469,6	729
470	685
470,5	680,333
470,9	699,333
471,4	698
471,8	671
472,3	643,667
472,7	669,333
473,2	685,667
473,6	674,333
474,1	659
474,5	632
475	663,333
475,4	658,333
475,9	656,667
476,4	651
476,8	667
477,3	643,333
477,7	633,333
478,2	638,667
478,6	651,667
479,1	637,333
479,5	635,333
480	628,333
480,4	621,667
480,9	611,333
481,3	637,333
481,8	610,667
482,2	610,667
482,7	621,667
483,1	625,667
483,6	622,333
484	593
484,5	610,333
484,9	613,667
485,4	571,667
485,8	579,333
486,3	605,667
486,7	572,667
487,2	603,667
487,6	580
488,1	567,333
488,5	581,667
489	594,333
489,4	562,667
489,9	578,333
490,4	558,667
490,8	557
491,3	554,333
491,7	565,667
492,2	557,667
492,6	550,667
493,1	544
493,5	553
494	542,333
494,4	578
494,9	535,333
495,3	563,333
495,8	556,667
496,2	540
496,7	511
497,1	519
497,6	514,333
498	499,667
498,5	503
498,9	510,333
499,4	549
499,8	521
500,3	498,667
500,7	489,667
501,2	502,333
501,6	541
502,1	516,333
502,5	494,667
503	487,667
503,4	482
503,9	519
504,3	487,333
504,8	467,333
505,2	487
505,7	519,333
506,1	481,667
506,6	487,667
507	466,333
507,5	471,333
507,9	511,333
508,4	492,333
508,8	508,333
509,3	455,667
509,7	477,333
510,2	507
510,6	455,333
511,1	468,667
511,5	443,667
512	474,667
512,4	488,333
512,9	501,333
513,3	475,667
513,8	497,333
514,2	458,333
514,7	435,333
515,1	464
515,6	448
516	475,667
516,5	458,333
516,9	489,667
517,4	495,333
517,8	459,667
518,3	454,333
518,7	480,667
519,2	444,333
519,6	478
520,1	474,333
520,5	485
521	483,667
521,4	447
521,9	454,667
522,3	474,667
522,8	455,333
523,2	449,667
523,7	440,667
524,1	455
524,6	450,667
525	448,667
525,5	456,333
525,9	507,333
526,4	435,667
526,8	447
527,3	443,667
527,7	438,667
528,2	447
528,6	485,667
529,1	452,333
529,5	430,667
530	458
530,4	438,333
530,9	454
531,3	449,333
531,8	418,667
532,2	429
532,6	477,333
533,1	452,333
533,5	408,667
534	412,667
534,4	433,333
534,9	409,667
535,3	431,333
535,8	467,333
536,2	430,333
536,7	483
537,1	434,667
537,6	433,667
538	426,667
538,5	472
538,9	452
539,4	447,333
539,8	459,667
540,3	410
540,7	451,333
541,2	443,667
541,6	415,667
542,1	423,333
542,5	437,333
543	439,333
543,4	435,333
543,9	443
544,3	454,667
544,8	432
545,2	427
545,7	437,667
546,1	433,333
546,5	412
547	437,667
547,4	443,667
547,9	429
548,3	416,333
548,8	411,333
549,2	447
549,7	429
550,1	438,333
550,6	429,333
551	420,333
551,5	422
551,9	457,667
552,4	427
552,8	433
553,3	442
553,7	455,667
554,2	442,333
554,6	435
555,1	429,333
555,5	434,667
555,9	437,333
556,4	411,667
556,8	433,333
557,3	432,667
557,7	418,667
558,2	459
558,6	442,667
559,1	436,333
559,5	438,667
560	429
560,4	436,333
560,9	448
561,3	413,333
561,8	409,333
562,2	422
562,7	384,667
563,1	412
563,6	386
564	462,667
564,4	405
564,9	430,333
565,3	444,333
565,8	387,667
566,2	427,333
566,7	403
567,1	411,667
567,6	395
568	400
568,5	392
568,9	397,667
569,4	400
569,8	434
570,3	382,333
570,7	409
571,1	402
571,6	408,333
572	382,333
572,5	389,667
572,9	409,333
573,4	378
573,8	391,667
574,3	384,667
574,7	370
575,2	376,667
575,6	397,333
576,1	385,333
576,5	403,667
576,9	380,667
577,4	375,333
577,8	365,333
578,3	364,667
578,7	362,333
579,2	347,333
579,6	382,667
580,1	365,333
580,5	375,667
581	356
581,4	342,667
581,9	352,667
582,3	366
582,7	341
583,2	335,333
583,6	352,667
584,1	362,333
584,5	350,667
585	343
585,4	310
585,9	324
586,3	323,667
586,8	357
587,2	337,667
587,6	348,667
588,1	339
588,5	332,333
589	313,333
589,4	329
589,9	321,667
590,3	335,333
590,8	297,667
591,2	337,333
591,7	333
592,1	305,333
592,5	331
593	331
593,4	326
593,9	342,667
594,3	332,667
594,8	338
595,2	288
595,7	319,333
596,1	316,667
596,6	316
597	288,333
597,4	288
597,9	281,667
598,3	320,667
598,8	300
599,2	304
599,7	323
600,1	294
600,6	304,667
601	296,333
601,4	289,333
601,9	306,667
602,3	294
602,8	309,333
603,2	300,333
603,7	300,333
604,1	322,333
604,6	295,333
605	325
605,4	308,333
605,9	283,333
606,3	305
606,8	325,667
607,2	324
607,7	315,333
608,1	296
608,6	264
609	298
609,4	312,333
609,9	279,667
610,3	300
610,8	303
611,2	276
611,7	316
612,1	310,667
612,6	302
613	272,333
613,4	275
613,9	286,667
614,3	320,667
614,8	295
615,2	284
615,7	291,667
616,1	311,667
616,6	277,333
617	281,333
617,4	255
617,9	276,333
618,3	283,667
618,8	274,333
619,2	311,333
619,7	302,333
620,1	260,667
620,5	265,333
621	274,667
621,4	244,333
621,9	275,667
622,3	265
622,8	283,333
623,2	277,333
623,6	255,333
624,1	252
624,5	254,333
625	312,667
625,4	263,333
625,9	269,333
626,3	261,667
626,8	261,333
627,2	255
627,6	262
628,1	251,333
628,5	244,333
629	272
629,4	226,667
629,9	290,333
630,3	238
630,7	264,667
631,2	263
631,6	267
632,1	280,667
632,5	236,333
633	248,667
633,4	261
633,8	249,667
634,3	242,667
634,7	221,667
635,2	236,667
635,6	219,333
636,1	246,667
636,5	246
636,9	229,667
637,4	238,333
637,8	222,333
638,3	231,667
638,7	229
639,2	242,333
639,6	216,667
640	219,667
640,5	256,667
640,9	192,333
641,4	232,667
641,8	240,333
642,2	245,333
642,7	237,667
643,1	212,667
643,6	246,333
644	221,667
644,5	245,333
644,9	228,667
645,3	217
645,8	206,667
646,2	214
646,7	218,667
647,1	225,667
647,6	222,333
648	222,333
648,4	221
648,9	228,667
649,3	207
649,8	224,667
650,2	205,667
650,6	173,333
651,1	167
651,5	191,333
652	209,333
652,4	205,667
652,9	206,667
653,3	221
653,7	204,667
654,2	207,333
654,6	211,667
655,1	190,333
655,5	190,333
655,9	209
656,4	171
656,8	197
657,3	192
657,7	144,667
658,2	190,333
658,6	175,667
659	162,333
659,5	212,333
659,9	142,333
660,4	177,667
660,8	188,333
661,2	198,667
661,7	197,667
662,1	176,667
662,6	169
663	161,667
663,4	166
663,9	185
664,3	179
664,8	149,667
665,2	171
665,6	162,333
666,1	195,667
666,5	153,333
667	171,667
667,4	191
667,9	171
668,3	200,333
668,7	160,333
669,2	194,333
669,6	144,333
670,1	162
670,5	165,667
670,9	165,333
671,4	143
671,8	159,333
672,3	183
672,7	183,667
673,1	144,333
673,6	135,667
674	125,667
674,5	159,667
674,9	126,667
675,3	150
675,8	178
676,2	130,333
676,7	124,333
677,1	157
677,5	138,667
678	137,667
678,4	140,667
678,9	137,333
679,3	118,333
679,7	143,333
680,2	111,333
680,6	133
681,1	118
681,5	162
681,9	152
682,4	158,333
682,8	118,667
683,3	111,333
683,7	107,333
684,1	134
684,6	95,333
685	113
685,5	108,667
685,9	124,667
686,3	126
686,8	135,333
687,2	128,667
687,7	128
688,1	109,667
688,5	126,667
689	94,667
689,4	126,667
689,9	132
690,3	86,667
690,7	112,333
691,2	102
691,6	119
692	106,333
692,5	104,333
692,9	97
693,4	94,333
693,8	110,667
694,2	114
694,7	121
695,1	149,333
695,6	94,333
696	113,667
696,4	106
696,9	100
697,3	96,667
697,8	87,333
698,2	90
698,6	119
699,1	108,667
699,5	69,333
699,9	81,667
700,4	65,333
700,8	89,333
701,3	112,667
701,7	90,667
702,1	101,667
702,6	126,333
703	79,667
703,5	101
703,9	94
704,3	76,333
704,8	91
705,2	114
705,6	91,333
706,1	86,667
706,5	82
707	77,333
707,4	96
707,8	116
708,3	74
708,7	90,333
709,2	108
709,6	103
710	91,667
710,5	72,333
710,9	101,333
711,3	106,333
711,8	54,333
712,2	69,333
712,7	80,333
713,1	63,333
713,5	91
714	90,333
714,4	88,333
714,8	100
715,3	77,333
715,7	122,333
716,2	82
716,6	84
717	76,667
717,5	93,333
717,9	67,333
718,3	68,333
718,8	89,333
719,2	55,333
719,7	77
720,1	79,667
720,5	78
721	83,333
721,4	71,667
721,8	74,667
722,3	69
722,7	71
723,2	67,333
723,6	43,667
724	85,667
724,5	64
724,9	78,667
725,3	44
725,8	82,667
726,2	61
726,7	63,333
727,1	75,333
727,5	65,667
728	58
728,4	72
728,8	70,667
729,3	69,333
729,7	77
730,1	67
730,6	68,333
731	47,667
731,5	79
731,9	50,333
732,3	50
732,8	54,333
733,2	70,667
733,6	72,667
734,1	46,333
734,5	66,333
734,9	73
735,4	53
735,8	80,667
736,3	58,333
736,7	24,667
737,1	48,667
737,6	84,667
738	43
738,4	44
738,9	52,333
739,3	46,333
739,7	65,333
740,2	31
740,6	75,667
741,1	62,333
741,5	82,667
741,9	71
742,4	37
742,8	61,667
743,2	71
743,7	48,333
744,1	67,333
744,5	68,667
745	41
745,4	50,667
745,8	57,333
746,3	58,667
746,7	59
747,2	54
747,6	35
748	56,667
748,5	33
748,9	45,333
749,3	42,333
749,8	68
750,2	53,667
750,6	23,667
751,1	60,667
751,5	49
751,9	54
752,4	42,333
752,8	56,333
753,3	42,667
753,7	33,667
754,1	44
754,6	62,667
755	25,667
755,4	34,667
755,9	50,667
756,3	70,667
756,7	21,333
757,2	62,667
757,6	62
758	64,667
758,5	75,333
758,9	51
759,3	72
759,8	11,333
760,2	47,667
760,6	14
761,1	34
761,5	34,667
761,9	39,333
762,4	46
762,8	73,333
763,3	85,333
763,7	42
764,1	21
764,6	56
765	27,333
765,4	49,667
765,9	31,667
766,3	48,333
766,7	57,667
767,2	35
767,6	51,667
768	41,333
768,5	46,333
768,9	43
769,3	32,333
769,8	35,333
770,2	75
770,6	56,333
771,1	51,333
771,5	28,333
771,9	26
772,4	34,333
772,8	28,667
773,2	40
773,7	71,667
774,1	30,333
774,5	37,333
775	36,333
775,4	23
775,8	82,667
776,3	17,667
776,7	53,333
777,1	43,667
777,6	23,667
778	18,333
778,4	40,667
778,9	21,333
779,3	38
779,7	18
780,2	71
780,6	35
781	35,333
781,5	25,333
781,9	34,333
782,3	25,333
782,8	20
783,2	42,667
783,6	19
784,1	21,333
784,5	41,667
784,9	17
785,4	57,333
785,8	38,333
786,2	9
786,7	64
787,1	56
787,5	37,333
788	53
788,4	26,667
788,8	43
789,3	12
789,7	40
790,1	19,333
790,6	36
791	22,333
791,4	28
791,9	41,333
792,3	26
792,7	45,333
793,2	47,667
793,6	36,333
794	16
794,5	43,667
794,9	37,333
795,3	26
795,8	57,333
796,2	22,667
796,6	48,667
797,1	54,667
797,5	26,667
797,9	31,333
798,4	73
798,8	20,333
799,2	47,667
799,7	37,333
800,1	14
800,5	43,667
801	9,667
801,4	12
801,8	28,333
802,2	55,333
802,7	49,667
803,1	23
803,5	41,667
804	45,667
804,4	24
804,8	44
805,3	41,667
805,7	60,333
806,1	0,333
806,6	71,667
807	30
807,4	23
807,9	17,333
808,3	66,667
808,7	40
809,2	25
809,6	48
810	16,667
810,4	29,667
810,9	51,667
811,3	31
811,7	50,333
812,2	34,667
812,6	34,667
813	21,333
813,5	-2,333
813,9	9,667
814,3	36
814,8	37,667
815,2	51
815,6	42,333
816,1	7,333
816,5	25,667
816,9	34,667
817,3	55,333
817,8	38,667
818,2	27,667
818,6	4,333
819,1	28
819,5	46
819,9	-7
820,4	46,667
820,8	21
821,2	3
821,7	-2,667
822,1	15
822,5	22,333
822,9	46
823,4	-4,667
823,8	70
824,2	30,333
824,7	43
825,1	15,667
825,5	56,333
826	21,333
826,4	25,667
826,8	43
827,3	53,333
827,7	35,333
828,1	19,667
828,5	43
829	15,333
829,4	19,667
829,8	19
830,3	30,333
830,7	68
831,1	52,333
831,6	25,667
832	43
832,4	33
832,8	22,667
833,3	38,667
833,7	46,333
834,1	47
834,6	10
835	32
835,4	31
835,8	32
836,3	34,667
836,7	25,333
837,1	33,667
837,6	20
838	48
838,4	44,667
838,9	-8,667
839,3	19
839,7	18
840,1	49,333
840,6	30,667
841	58,333
841,4	55
841,9	25,333
842,3	21,333
842,7	10
843,1	12,667
843,6	16
844	2
844,4	18,667
844,9	8,333
845,3	41
845,7	18,667
846,2	38,333
846,6	49,333
847	42,333
847,4	54,333
847,9	23,333
848,3	25,667
848,7	52
849,2	17,333
849,6	38
850	38,333
850,4	18
850,9	20
851,3	10
851,7	32,333
852,2	32,333
852,6	31
853	41,667
853,4	16,333
853,9	81,667
854,3	14,667
854,7	32
855,2	42
855,6	36,333
856	37,667
856,4	43,333
856,9	8
857,3	21,333
857,7	37
858,2	46,667
858,6	7
859	18
859,4	28,667
859,9	32,333
860,3	21,667
860,7	21,333
861,1	6,333
861,6	35,667
862	29
862,4	57,667
862,9	26
863,3	31,667
863,7	22,667
864,1	53
864,6	11
865	26
865,4	20
865,9	19
866,3	-0,667
866,7	7
867,1	1,333
867,6	37,667
868	-3,333
868,4	46,667
868,8	38,333
869,3	17,333
869,7	9,333
870,1	33,333
870,6	46,667
871	36,333
871,4	34,333
871,8	34,667
872,3	184,667
872,7	34
873,1	21
873,5	-4,667
874	45
874,4	26,667
874,8	46,667
875,3	16,667
875,7	49,667
876,1	27
876,5	49
877	30,333
877,4	25
877,8	51,333
878,2	18,333
878,7	19,667
879,1	35,667
879,5	21,667
879,9	24
880,4	38
880,8	17,667
881,2	38,333
881,7	16,333
882,1	39
882,5	45
882,9	21
883,4	5
883,8	8,333
884,2	9,667
884,6	36,333
885,1	35,333
885,5	3,667
885,9	-4,333
886,3	37,333
886,8	20,333
887,2	36
887,6	35,333
888	28,667
888,5	8,333
888,9	10
889,3	27,667
889,8	34,333
890,2	25
890,6	21,333
891	8
891,5	51,333
891,9	36
892,3	17,333
892,7	16
893,2	25,333
893,6	53,667
894	22,333
894,4	44,333
894,9	40,667
895,3	27,667
895,7	40
896,1	43
896,6	16,333
897	36,333
897,4	19
897,8	15
898,3	56,333
898,7	31,333
899,1	44,667
899,5	1
900	22,333
900,4	30,333
900,8	11,333
901,2	46,333
901,7	39
902,1	31,333
902,5	55
902,9	38,667
903,4	51,667
903,8	7,333
904,2	50
904,6	55
905,1	52,333
905,5	29,333
905,9	58,333
906,3	12,667
906,8	39,333
907,2	3,667
907,6	47,333
908	47,333
908,5	34,333
908,9	47,667
909,3	35
909,7	39,667
910,2	21
910,6	37
911	43
911,4	31,667
911,9	45,667
912,3	22,333
912,7	39,333
913,1	16,333
913,6	32
914	36,333
914,4	39
914,8	16,333
915,3	37,667
915,7	30,333
916,1	50,333
916,5	26,667
916,9	69,667
917,4	53,333
917,8	16,333
918,2	30,667
918,6	12
919,1	6
919,5	16,667
919,9	51,333
920,3	35,667
920,8	11
921,2	2,667
921,6	31,333
922	30,667
922,5	62,667
922,9	47,333
923,3	67,333
923,7	25,667
924,2	-1,667
924,6	21,333
925	27,667
925,4	35
925,8	42,333
926,3	32,333
926,7	36,667
927,1	53,333
927,5	9,333
928	26,333
928,4	25,667
928,8	38,333
929,2	34,333
929,7	14,667
930,1	44,667
930,5	30
930,9	35
931,3	26,667
931,8	38
932,2	9
932,6	8
933	59,333
933,5	40,333
933,9	26,333
934,3	11,667
934,7	27
935,2	47
935,6	29,667
936	-6,333
936,4	49,667
936,8	58
937,3	45,667
937,7	65,333
938,1	34,667
938,5	56,667
939	-6,667
939,4	63,667
939,8	41,667
940,2	31,667
940,6	41
941,1	32,667
941,5	47,667
941,9	32,667
942,3	8,333
942,8	16,333
943,2	49
943,6	28,667
944	24,333
944,4	48,333
944,9	58,667
945,3	47
945,7	24
946,1	32,667
946,6	6
947	50
947,4	32,667
947,8	35,333
948,2	25
948,7	13,333
949,1	25
949,5	37
949,9	50,333
950,3	21,667
950,8	30,667
951,2	28,667
951,6	38,333
952	10,333
952,5	41,333
952,9	16,667
953,3	7,333
953,7	14
954,1	57,333
954,6	20,667
955	54,667
955,4	-3
955,8	50,667
956,2	10,667
956,7	18,667
957,1	31
957,5	30,667
957,9	18,333
958,3	42,667
958,8	37,667
959,2	61,333
959,6	19,333
960	12,333
960,5	39,667
960,9	12
961,3	39,333
961,7	32,667
962,1	41,333
962,6	41
963	28,333
963,4	33,667
963,8	40,667
964,2	19,333
964,7	18,333
965,1	30,667
965,5	2
965,9	24,333
966,3	57
966,8	14,333
967,2	40
967,6	48,333
968	48,667
968,4	18,667
968,9	58,667
969,3	50,667
969,7	31
970,1	23
970,5	42,667
971	35
971,4	20,667
971,8	32,667
972,2	30
972,6	41,333
973,1	28
973,5	11,333
973,9	20,667
974,3	38
974,7	59
975,2	10,667
975,6	12,667
976	37,667
976,4	54,667
976,8	30,333
977,3	19
977,7	48,667
978,1	48
978,5	27
978,9	19,667
979,4	8,333
979,8	49
980,2	18,667
980,6	25,333
981	13
981,5	37,667
981,9	-13
982,3	34,333
982,7	32,333
983,1	28,333
983,6	27
984	60,333
984,4	31,667
984,8	14,333
985,2	44,333
985,6	-2,333
986,1	17
986,5	39
986,9	33,667
987,3	71,333
987,7	6,667
988,2	15,667
988,6	-15,667
989	72,667
989,4	44,333
989,8	31,333
990,3	49
990,7	37
991,1	42,667
991,5	24
991,9	20
992,3	35
992,8	63
993,2	49
993,6	39
994	40
994,4	21
994,9	20
995,3	43,667
995,7	36
996,1	26,333
996,5	35,333
996,9	42
997,4	7
997,8	3
998,2	68,333
998,6	24,333
999	29,667
999,5	48,667
999,9	1,667
1000,3	46,667
1000,7	48
1001,1	69,667
1001,5	6
1002	22,333
1002,4	24,667
1002,8	40,667
1003,2	22,333
1003,6	18,333
1004	39
1004,5	15,333
1004,9	47
1005,3	26
1005,7	44,667
1006,1	40
1006,6	33,333
1007	35,333
1007,4	12
1007,8	3,333
1008,2	13,333
1008,6	23
1009,1	29
1009,5	34,333
1009,9	41,333
1010,3	53,667
1010,7	20,667
1011,1	39
1011,6	69
1012	59,667
1012,4	49,333
1012,8	64,333
1013,2	24
1013,6	30,333
1014,1	52
1014,5	-8,667
1014,9	10
1015,3	63
1015,7	14
1016,1	22,333
1016,6	20
1017	47,333
1017,4	8,667
1017,8	29,667
1018,2	56
1018,6	13
1019,1	49,333
1019,5	12
1019,9	54
1020,3	23,333
1020,7	-8,333
1021,1	42,333
1021,6	17
1022	32
1022,4	21,333
1022,8	27,667
1023,2	47,333
1023,6	1,333
1024,1	24,333
1024,5	7,667
1024,9	28
1025,3	32,333
1025,7	32,667
1026,1	29,667
1026,6	27,333
1027	5,667
1027,4	13
1027,8	18,667
1028,2	41,333
1028,6	44,667
1029	13
1029,5	43
1029,9	35,667
1030,3	22
1030,7	25,667
1031,1	23
1031,5	22
1032	32
1032,4	31,667
1032,8	63
1033,2	54
1033,6	-9,333
1034	59
1034,4	6,333
1034,9	52,333
1035,3	32
1035,7	30,667
1036,1	23
1036,5	49
1036,9	9
1037,4	27
1037,8	30,333
1038,2	48,667
1038,6	41
1039	49,667
1039,4	-12
1039,8	43,333
1040,3	34
1040,7	30
1041,1	41
1041,5	48,333
1041,9	33
1042,3	17,667
1042,7	34,333
1043,2	19
1043,6	45,667
1044	19,333
1044,4	58,333
1044,8	65
1045,2	32,333
1045,6	34,333
1046,1	38,333
1046,5	37,667
1046,9	36,333
1047,3	51
1047,7	31,667
1048,1	6,667
1048,5	18,667
1049	39,667
1049,4	7,667
1049,8	32,333
1050,2	20,667
1050,6	49,333
1051	44
1051,4	51,333
1051,9	18
1052,3	4
1052,7	36,333
1053,1	33,333
1053,5	42,333
1053,9	22,333
1054,3	16,667
1054,8	63,333
1055,2	41,333
1055,6	67
1056	26,333
1056,4	12,667
1056,8	51,333
1057,2	33,667
1057,6	52,333
1058,1	68
1058,5	31,333
1058,9	43,333
1059,3	13
1059,7	49,667
1060,1	22
1060,5	53,333
1061	35,667
1061,4	31,333
1061,8	47,667
1062,2	31,667
1062,6	24,333
1063	29
1063,4	59,667
1063,8	43,333
1064,3	45
1064,7	36,333
1065,1	-8,333
1065,5	48
1065,9	57,667
1066,3	23
1066,7	84
1067,1	57,333
1067,6	61
1068	19,333
1068,4	40
1068,8	39
1069,2	48,667
1069,6	32,667
1070	27,333
1070,4	19
1070,9	62,667
1071,3	21,333
1071,7	39,667
1072,1	22
1072,5	30
1072,9	0,333
1073,3	14
1073,7	28
1074,2	-11,333
1074,6	35
1075	26
1075,4	41,667
1075,8	41
1076,2	53,333
1076,6	18
1077	26,333
1077,5	34
1077,9	46,667
1078,3	26
1078,7	27,667
1079,1	13,333
1079,5	33
1079,9	42
1080,3	29
1080,7	16,667
1081,2	41,333
1081,6	19
1082	29
1082,4	19,333
1082,8	24
1083,2	39,333
1083,6	9
1084	72,667
1084,5	44
1084,9	16,333
1085,3	38,333
1085,7	53,667
1086,1	45,667
1086,5	53,667
1086,9	2,333
1087,3	49,667
1087,7	2,333
1088,2	-7
1088,6	27,333
1089	52,333
1089,4	9
1089,8	23,333
1090,2	19,333
1090,6	-6,333
1091	25
1091,4	29,667
1091,9	23,667
1092,3	57,667
1092,7	-2,333
1093,1	25,667
1093,5	40,667
1093,9	43,333
1094,3	18,333
1094,7	37,667
1095,1	57,667
1095,5	10,333
1096	29,667
1096,4	21
1096,8	44,667
1097,2	53,667
1097,6	34,667
1098	21,333
1098,4	16
1098,8	30
1099,2	22,667
1099,6	24
1100,1	15
1100,5	3,333
1100,9	21,333
1101,3	24,333
1101,7	-2,667
1102,1	-0,667
1102,5	32
1102,9	18,333
1103,3	16,333
1103,7	20,667
1104,2	20,667
1104,6	16
1105	14
1105,4	26
1105,8	18,333
1106,2	30
1106,6	13
1107	2
1107,4	-2,333
1107,8	1
1108,3	-2
