Data from Subt2_20-14-16-820.txt Node
Date: Tue Nov 15 20:14:16 MSK 2022
User: vat
Spectrometer: MAYP114033
Trigger mode: 0
Integration Time (sec): 3,500000E-1
Scans to average: 3
Electric dark correction enabled: true
Nonlinearity correction enabled: false
Boxcar width: 0
XAxis mode: Wavelengths
Number of Pixels in Spectrum: 2068
>>>>>Begin Spectral Data<<<<<
199,4	1,056
199,9	1,056
200,4	-6,611
200,8	4,722
201,3	-8,278
201,8	11,056
202,2	7,056
202,7	20,389
203,2	-8,944
203,6	-5,611
204,1	32,389
204,6	-4,611
205	29,722
205,5	30,389
206	26,056
206,4	5,389
206,9	22,389
207,4	33,389
207,8	28,389
208,3	2,389
208,8	13,056
209,2	18,722
209,7	37,722
210,2	-12,278
210,6	23,389
211,1	12,056
211,5	10,056
212	13,056
212,5	-5,611
212,9	36,722
213,4	26,389
213,9	15,056
214,3	29,389
214,8	-2,944
215,3	-15,944
215,7	34,389
216,2	31,056
216,7	47,056
217,1	32,722
217,6	11,389
218,1	28,389
218,5	35,722
219	27,722
219,5	29,389
219,9	-0,611
220,4	55,722
220,9	34,056
221,3	53,056
221,8	21,056
222,3	38,056
222,7	35,389
223,2	8,056
223,6	29,056
224,1	49,389
224,6	29,056
225	13,722
225,5	35,389
226	0,056
226,4	27,389
226,9	22,722
227,4	29,722
227,8	23,056
228,3	19,389
228,8	13,056
229,2	27,056
229,7	60,389
230,2	13,389
230,6	19,389
231,1	-10,611
231,5	26,056
232	51,389
232,5	10,722
232,9	27,056
233,4	-0,278
233,9	-8,611
234,3	13,722
234,8	20,722
235,3	26,389
235,7	40,389
236,2	-16,278
236,7	40,722
237,1	5,722
237,6	68,389
238,1	34,056
238,5	9,056
239	15,389
239,4	20,722
239,9	13,056
240,4	34,389
240,8	34,389
241,3	31,722
241,8	6,722
242,2	17,389
242,7	4,389
243,2	15,056
243,6	35,056
244,1	16,389
244,6	36,722
245	18,389
245,5	30,389
245,9	46,056
246,4	41,722
246,9	20,722
247,3	50,722
247,8	11,056
248,3	13,722
248,7	35,389
249,2	9,056
249,7	29,056
250,1	32,056
250,6	46,389
251	4,722
251,5	14,722
252	4,722
252,4	70,056
252,9	31,389
253,4	27,722
253,8	-2,278
254,3	35,722
254,8	28,056
255,2	11,389
255,7	13,722
256,1	9,722
256,6	13,389
257,1	23,722
257,5	4,722
258	17,722
258,5	28,722
258,9	35,722
259,4	43,389
259,9	21,389
260,3	20,722
260,8	2,389
261,2	16,056
261,7	22,389
262,2	36,722
262,6	5,056
263,1	16,056
263,6	53,722
264	19,722
264,5	26,722
264,9	41,056
265,4	42,056
265,9	35,722
266,3	48,056
266,8	14,056
267,3	50,056
267,7	47,056
268,2	5,389
268,7	11,722
269,1	-13,278
269,6	19,389
270	15,389
270,5	35,389
271	32,722
271,4	32,722
271,9	9,056
272,4	-7,944
272,8	40,722
273,3	36,389
273,7	37,056
274,2	44,056
274,7	56,389
275,1	27,056
275,6	40,722
276,1	27,389
276,5	46,056
277	17,722
277,4	23,056
277,9	59,722
278,4	36,056
278,8	48,722
279,3	10,389
279,8	20,722
280,2	-18,278
280,7	6,389
281,1	6,389
281,6	7,722
282,1	26,056
282,5	28,056
283	42,056
283,4	37,389
283,9	23,389
284,4	26,389
284,8	37,722
285,3	38,722
285,8	44,056
286,2	19,389
286,7	56,389
287,1	11,389
287,6	12,389
288,1	-8,278
288,5	9,056
289	28,056
289,5	50,056
289,9	-7,278
290,4	27,389
290,8	5,389
291,3	16,056
291,8	6,056
292,2	38,722
292,7	0,389
293,1	25,722
293,6	29,389
294,1	30,056
294,5	-2,611
295	18,722
295,5	40,056
295,9	29,389
296,4	-3,611
296,8	13,056
297,3	10,389
297,8	33,056
298,2	-15,944
298,7	12,056
299,1	19,722
299,6	42,722
300,1	34,056
300,5	1,056
301	11,056
301,5	18,722
301,9	5,389
302,4	9,389
302,8	39,722
303,3	8,722
303,8	38,056
304,2	-2,278
304,7	15,722
305,1	27,722
305,6	19,389
306,1	19,056
306,5	28,389
307	34,722
307,4	14,722
307,9	40,056
308,4	41,389
308,8	8,056
309,3	11,389
309,8	39,722
310,2	26,389
310,7	45,389
311,1	26,389
311,6	-0,944
312,1	35,056
312,5	27,389
313	53,056
313,4	20,056
313,9	39,389
314,4	18,056
314,8	21,056
315,3	35,389
315,7	16,722
316,2	26,056
316,7	24,722
317,1	27,389
317,6	5,722
318	11,389
318,5	4,389
319	13,389
319,4	1,389
319,9	24,389
320,3	33,056
320,8	0,389
321,3	9,056
321,7	36,056
322,2	-7,611
322,6	27,389
323,1	-8,278
323,6	24,722
324	28,722
324,5	37,722
324,9	11,389
325,4	23,722
325,9	24,389
326,3	33,722
326,8	40,056
327,2	29,389
327,7	-1,944
328,2	2,056
328,6	34,056
329,1	18,722
329,5	31,389
330	21,722
330,5	18,056
330,9	13,056
331,4	-0,944
331,8	1,389
332,3	0,056
332,8	29,389
333,2	6,722
333,7	25,389
334,1	-3,278
334,6	22,389
335,1	41,056
335,5	39,389
336	23,056
336,4	8,056
336,9	4,722
337,4	37,722
337,8	13,389
338,3	24,389
338,7	29,722
339,2	71,389
339,7	26,722
340,1	19,722
340,6	30,389
341	10,056
341,5	58,722
342	-7,278
342,4	16,389
342,9	20,056
343,3	24,056
343,8	33,389
344,2	35,056
344,7	17,722
345,2	12,722
345,6	4,722
346,1	18,722
346,5	20,056
347	8,056
347,5	74,056
347,9	44,722
348,4	12,722
348,8	4,722
349,3	13,056
349,8	51,722
350,2	14,389
350,7	-1,611
351,1	3,389
351,6	15,389
352	30,389
352,5	43,389
353	31,722
353,4	53,056
353,9	16,722
354,3	19,722
354,8	39,056
355,3	34,722
355,7	53,056
356,2	44,722
356,6	43,056
357,1	60,722
357,5	78,056
358	66,056
358,5	73,056
358,9	79,722
359,4	96,389
359,8	109,389
360,3	100,056
360,8	131,722
361,2	139,722
361,7	141,722
362,1	176,389
362,6	144,056
363	165,722
363,5	219,389
364	239,056
364,4	261,389
364,9	285,056
365,3	284,389
365,8	294,056
366,3	336,056
366,7	354,722
367,2	358,389
367,6	382,389
368,1	384,722
368,5	388,389
369	381,722
369,5	380,722
369,9	372,722
370,4	390,722
370,8	408,722
371,3	369,722
371,7	393,722
372,2	331,722
372,7	359,389
373,1	302,722
373,6	281,389
374	288,722
374,5	255,389
374,9	279,389
375,4	247,722
375,9	243,389
376,3	228,722
376,8	241,389
377,2	204,722
377,7	200,389
378,2	184,722
378,6	191,722
379,1	205,722
379,5	205,722
380	190,389
380,4	184,056
380,9	211,722
381,4	178,389
381,8	200,056
382,3	182,389
382,7	188,056
383,2	213,056
383,6	196,389
384,1	198,056
384,6	262,722
385	208,056
385,5	266,722
385,9	268,056
386,4	254,056
386,8	297,056
387,3	260,056
387,7	297,722
388,2	293,056
388,7	314,389
389,1	307,056
389,6	345,056
390	379,389
390,5	404,722
390,9	399,056
391,4	454,056
391,9	449,056
392,3	473,056
392,8	498,722
393,2	537,056
393,7	571,056
394,1	582,056
394,6	642,056
395,1	649,722
395,5	671,722
396	728,056
396,4	731,389
396,9	812,389
397,3	804,389
397,8	884,389
398,2	913,056
398,7	967,389
399,2	1031,056
399,6	1011,389
400,1	1104,056
400,5	1124,389
401	1136,056
401,4	1205,722
401,9	1307,056
402,4	1313,389
402,8	1351,056
403,3	1425,389
403,7	1462,056
404,2	1511,056
404,6	1581,389
405,1	1651,056
405,5	1683,389
406	1719,056
406,5	1786,722
406,9	1850,056
407,4	1944,389
407,8	1985,056
408,3	2012,389
408,7	2073,056
409,2	2116,722
409,6	2181,389
410,1	2240,056
410,6	2363,722
411	2363,056
411,5	2463,389
411,9	2434,389
412,4	2543,389
412,8	2616,389
413,3	2685,389
413,7	2709,389
414,2	2780,056
414,7	2797,722
415,1	2880,389
415,6	2910,389
416	3011,056
416,5	3056,722
416,9	3095,389
417,4	3128,722
417,8	3229,722
418,3	3262,056
418,8	3324,056
419,2	3345,389
419,7	3465,056
420,1	3429,056
420,6	3494,056
421	3566,389
421,5	3574,389
421,9	3647,722
422,4	3696,389
422,8	3735,722
423,3	3799,722
423,8	3865,722
424,2	3928,056
424,7	3930,389
425,1	3965,056
425,6	4049,389
426	4017,389
426,5	4102,389
426,9	4081,056
427,4	4119,389
427,9	4197,056
428,3	4198,056
428,8	4278,389
429,2	4263,722
429,7	4370,056
430,1	4368,722
430,6	4393,722
431	4433,722
431,5	4372,056
431,9	4477,389
432,4	4473,389
432,8	4498,056
433,3	4555,722
433,8	4527,389
434,2	4580,722
434,7	4617,389
435,1	4704,389
435,6	4659,722
436	4649,722
436,5	4665,056
436,9	4732,389
437,4	4723,389
437,8	4776,389
438,3	4731,056
438,8	4784,056
439,2	4765,722
439,7	4778,389
440,1	4845,056
440,6	4817,056
441	4867,722
441,5	4781,389
441,9	4836,056
442,4	4870,722
442,8	4844,389
443,3	4859,722
443,7	4798,722
444,2	4907,056
444,7	4856,056
445,1	4860,389
445,6	4890,722
446	4861,056
446,5	4878,056
446,9	4886,389
447,4	4856,389
447,8	4808,722
448,3	4793,389
448,7	4866,722
449,2	4826,389
449,6	4839,389
450,1	4791,056
450,6	4812,056
451	4766,389
451,5	4806,056
451,9	4803,722
452,4	4766,056
452,8	4780,389
453,3	4721,389
453,7	4747,389
454,2	4737,722
454,6	4687,389
455,1	4678,056
455,5	4626,722
456	4670,722
456,4	4632,056
456,9	4616,056
457,3	4610,056
457,8	4568,722
458,3	4544,056
458,7	4567,389
459,2	4549,056
459,6	4435,389
460,1	4506,722
460,5	4446,389
461	4468,056
461,4	4420,389
461,9	4460,722
462,3	4373,056
462,8	4360,056
463,2	4328,389
463,7	4337,722
464,1	4298,056
464,6	4259,056
465	4296,056
465,5	4218,056
466	4184,389
466,4	4138,056
466,9	4149,722
467,3	4147,389
467,8	4123,722
468,2	4089,389
468,7	4083,389
469,1	4053,056
469,6	4027,722
470	3990,389
470,5	3978,389
470,9	3916,722
471,4	3914,056
471,8	3881,056
472,3	3860,056
472,7	3843,722
473,2	3785,389
473,6	3771,722
474,1	3754,056
474,5	3736,722
475	3720,722
475,4	3728,056
475,9	3672,389
476,4	3652,056
476,8	3618,389
477,3	3590,722
477,7	3568,722
478,2	3534,056
478,6	3527,056
479,1	3479,722
479,5	3515,722
480	3476,056
480,4	3426,722
480,9	3412,722
481,3	3371,056
481,8	3347,389
482,2	3347,389
482,7	3266,389
483,1	3250,056
483,6	3273,722
484	3204,722
484,5	3199,056
484,9	3167,389
485,4	3150,056
485,8	3114,722
486,3	3096,722
486,7	3044,722
487,2	3074,389
487,6	2990,056
488,1	3027,056
488,5	3000,722
489	2971,056
489,4	2918,056
489,9	2917,056
490,4	2900,056
490,8	2833,722
491,3	2814,056
491,7	2845,056
492,2	2793,056
492,6	2748,389
493,1	2742,056
493,5	2736,389
494	2663,722
494,4	2677,056
494,9	2643,722
495,3	2619,389
495,8	2608,056
496,2	2567,056
496,7	2539,722
497,1	2491,722
497,6	2524,389
498	2455,389
498,5	2475,056
498,9	2434,056
499,4	2451,389
499,8	2412,389
500,3	2343,722
500,7	2343,722
501,2	2350,722
501,6	2340,722
502,1	2341,056
502,5	2292,056
503	2270,056
503,4	2252,389
503,9	2267,722
504,3	2192,389
504,8	2225,722
505,2	2178,056
505,7	2169,389
506,1	2185,389
506,6	2127,389
507	2143,056
507,5	2093,389
507,9	2105,056
508,4	2064,056
508,8	2024,722
509,3	2035,056
509,7	2040,389
510,2	1998,389
510,6	1964,389
511,1	1971,056
511,5	1962,389
512	1930,722
512,4	1933,056
512,9	1921,056
513,3	1914,056
513,8	1881,389
514,2	1869,389
514,7	1786,722
515,1	1846,056
515,6	1826,056
516	1802,389
516,5	1757,389
516,9	1790,389
517,4	1773,056
517,8	1726,056
518,3	1727,722
518,7	1687,722
519,2	1710,389
519,6	1712,056
520,1	1675,389
520,5	1654,722
521	1688,056
521,4	1667,056
521,9	1592,056
522,3	1605,722
522,8	1585,056
523,2	1545,056
523,7	1557,389
524,1	1540,389
524,6	1544,056
525	1519,389
525,5	1503,056
525,9	1517,389
526,4	1489,722
526,8	1495,389
527,3	1453,056
527,7	1444,056
528,2	1442,389
528,6	1433,056
529,1	1405,389
529,5	1366,056
530	1383,722
530,4	1360,722
530,9	1357,056
531,3	1353,722
531,8	1317,389
532,2	1332,722
532,6	1326,722
533,1	1307,389
533,5	1281,056
534	1253,722
534,4	1297,722
534,9	1293,722
535,3	1218,056
535,8	1271,722
536,2	1209,722
536,7	1276,056
537,1	1208,056
537,6	1184,056
538	1188,722
538,5	1189,389
538,9	1165,389
539,4	1174,056
539,8	1185,056
540,3	1151,056
540,7	1147,056
541,2	1115,389
541,6	1099,722
542,1	1099,056
542,5	1099,722
543	1108,722
543,4	1085,389
543,9	1086,722
544,3	1090,389
544,8	1036,389
545,2	1038,389
545,7	1037,389
546,1	1016,389
546,5	979,389
547	993,722
547,4	1008,056
547,9	992,389
548,3	975,389
548,8	931,389
549,2	1000,389
549,7	978,056
550,1	958,722
550,6	948,056
551	910,056
551,5	918,056
551,9	920,722
552,4	886,056
552,8	917,722
553,3	870,056
553,7	913,056
554,2	878,722
554,6	878,056
555,1	857,056
555,5	846,056
555,9	814,722
556,4	806,056
556,8	855,389
557,3	833,056
557,7	796,056
558,2	834,722
558,6	848,722
559,1	782,389
559,5	782,389
560	785,389
560,4	809,389
560,9	799,722
561,3	743,056
561,8	773,056
562,2	755,722
562,7	714,722
563,1	759,389
563,6	718,389
564	786,722
564,4	712,056
564,9	736,056
565,3	741,389
565,8	677,722
566,2	725,056
566,7	728,722
567,1	730,056
567,6	694,389
568	673,056
568,5	694,389
568,9	669,056
569,4	692,056
569,8	659,389
570,3	649,056
570,7	636,389
571,1	653,056
571,6	664,722
572	629,389
572,5	622,722
572,9	639,389
573,4	614,056
573,8	614,389
574,3	608,056
574,7	613,056
575,2	568,722
575,6	617,056
576,1	576,389
576,5	597,389
576,9	590,056
577,4	549,722
577,8	556,389
578,3	578,722
578,7	556,056
579,2	557,722
579,6	545,722
580,1	533,389
580,5	544,056
581	508,389
581,4	504,056
581,9	534,389
582,3	521,389
582,7	473,722
583,2	526,056
583,6	482,389
584,1	504,389
584,5	473,722
585	491,722
585,4	491,722
585,9	477,056
586,3	474,056
586,8	493,389
587,2	470,722
587,6	474,389
588,1	478,389
588,5	439,389
589	416,056
589,4	464,056
589,9	439,389
590,3	449,389
590,8	438,389
591,2	436,056
591,7	429,389
592,1	438,056
592,5	403,722
593	419,389
593,4	402,056
593,9	376,389
594,3	392,389
594,8	416,389
595,2	380,722
595,7	394,722
596,1	407,389
596,6	391,056
597	370,056
597,4	368,056
597,9	355,722
598,3	366,389
598,8	359,389
599,2	381,722
599,7	394,056
600,1	345,056
600,6	378,722
601	341,389
601,4	340,389
601,9	363,056
602,3	339,056
602,8	379,389
603,2	330,056
603,7	328,389
604,1	341,722
604,6	319,722
605	365,389
605,4	337,389
605,9	326,722
606,3	333,722
606,8	343,056
607,2	350,056
607,7	325,389
608,1	288,056
608,6	286,389
609	306,722
609,4	303,056
609,9	295,389
610,3	280,056
610,8	299,722
611,2	310,389
611,7	304,722
612,1	294,722
612,6	303,722
613	298,389
613,4	269,722
613,9	282,056
614,3	283,389
614,8	305,056
615,2	256,389
615,7	267,722
616,1	277,056
616,6	247,722
617	260,056
617,4	239,056
617,9	252,722
618,3	271,389
618,8	250,389
619,2	255,389
619,7	265,056
620,1	251,389
620,5	209,389
621	242,389
621,4	229,389
621,9	258,056
622,3	218,722
622,8	236,056
623,2	206,056
623,6	215,056
624,1	217,722
624,5	173,056
625	259,056
625,4	197,389
625,9	246,722
626,3	235,722
626,8	230,389
627,2	186,056
627,6	211,722
628,1	214,722
628,5	187,056
629	193,722
629,4	196,389
629,9	227,389
630,3	191,722
630,7	205,722
631,2	204,722
631,6	195,056
632,1	194,389
632,5	187,722
633	174,389
633,4	197,389
633,8	205,722
634,3	185,722
634,7	183,722
635,2	165,722
635,6	170,389
636,1	163,722
636,5	193,056
636,9	165,056
637,4	175,722
637,8	151,056
638,3	170,389
638,7	175,722
639,2	168,389
639,6	128,722
640	133,722
640,5	168,722
640,9	140,056
641,4	162,722
641,8	166,722
642,2	163,056
642,7	152,389
643,1	151,389
643,6	151,722
644	182,056
644,5	191,056
644,9	156,056
645,3	137,389
645,8	149,722
646,2	149,056
646,7	133,389
647,1	167,056
647,6	126,389
648	125,389
648,4	158,056
648,9	138,389
649,3	143,056
649,8	132,722
650,2	152,389
650,6	102,389
651,1	138,389
651,5	134,722
652	156,722
652,4	166,389
652,9	118,722
653,3	135,389
653,7	112,056
654,2	137,389
654,6	146,056
655,1	113,389
655,5	121,722
655,9	131,389
656,4	95,056
656,8	124,389
657,3	107,722
657,7	70,722
658,2	107,722
658,6	123,722
659	104,722
659,5	137,056
659,9	81,722
660,4	99,056
660,8	125,056
661,2	124,389
661,7	143,056
662,1	94,056
662,6	101,389
663	97,389
663,4	87,722
663,9	123,056
664,3	104,056
664,8	86,722
665,2	102,389
665,6	76,389
666,1	124,056
666,5	92,389
667	101,722
667,4	109,722
667,9	106,722
668,3	105,056
668,7	91,056
669,2	91,056
669,6	78,722
670,1	92,722
670,5	99,722
670,9	96,722
671,4	88,722
671,8	108,722
672,3	100,056
672,7	85,056
673,1	102,056
673,6	53,389
674	89,056
674,5	95,056
674,9	94,722
675,3	103,722
675,8	120,722
676,2	87,056
676,7	74,056
677,1	85,722
677,5	83,056
678	70,056
678,4	86,389
678,9	91,056
679,3	63,056
679,7	75,722
680,2	56,056
680,6	67,722
681,1	64,056
681,5	86,722
681,9	64,056
682,4	106,722
682,8	43,056
683,3	57,389
683,7	52,389
684,1	63,389
684,6	78,389
685	65,722
685,5	52,722
685,9	51,722
686,3	81,722
686,8	80,722
687,2	80,389
687,7	78,389
688,1	73,389
688,5	69,389
689	72,389
689,4	58,389
689,9	79,056
690,3	55,056
690,7	56,722
691,2	95,722
691,6	78,389
692	59,389
692,5	61,722
692,9	61,389
693,4	56,722
693,8	64,389
694,2	73,722
694,7	86,056
695,1	81,389
695,6	64,722
696	31,722
696,4	64,722
696,9	59,389
697,3	47,389
697,8	59,056
698,2	48,722
698,6	71,056
699,1	36,389
699,5	52,056
699,9	33,056
700,4	32,722
700,8	51,722
701,3	70,056
701,7	55,722
702,1	54,389
702,6	59,722
703	48,722
703,5	61,722
703,9	61,722
704,3	57,056
704,8	38,389
705,2	52,389
705,6	55,722
706,1	43,389
706,5	38,389
707	38,389
707,4	39,056
707,8	69,389
708,3	18,056
708,7	45,056
709,2	71,056
709,6	26,722
710	77,389
710,5	56,722
710,9	67,056
711,3	66,389
711,8	31,056
712,2	41,056
712,7	67,722
713,1	11,722
713,5	48,056
714	56,722
714,4	33,722
714,8	55,722
715,3	31,722
715,7	75,389
716,2	69,722
716,6	75,056
717	57,056
717,5	45,722
717,9	25,056
718,3	36,389
718,8	80,389
719,2	20,389
719,7	21,722
720,1	35,389
720,5	51,389
721	50,389
721,4	42,056
721,8	15,389
722,3	34,722
722,7	41,056
723,2	30,389
723,6	30,722
724	50,389
724,5	34,722
724,9	45,722
725,3	16,722
725,8	29,389
726,2	39,722
726,7	38,722
727,1	46,056
727,5	34,722
728	38,056
728,4	33,056
728,8	27,389
729,3	43,056
729,7	59,056
730,1	48,056
730,6	25,722
731	24,056
731,5	40,389
731,9	47,056
732,3	25,056
732,8	24,389
733,2	41,722
733,6	36,389
734,1	31,389
734,5	32,722
734,9	39,389
735,4	16,389
735,8	40,056
736,3	-5,611
736,7	30,389
737,1	46,389
737,6	32,389
738	22,389
738,4	25,722
738,9	16,056
739,3	35,389
739,7	14,056
740,2	20,722
740,6	43,722
741,1	34,722
741,5	32,389
741,9	47,056
742,4	17,722
742,8	35,056
743,2	62,722
743,7	27,389
744,1	31,056
744,5	29,056
745	45,389
745,4	42,056
745,8	47,389
746,3	38,722
746,7	35,389
747,2	33,722
747,6	19,389
748	61,056
748,5	2,056
748,9	13,722
749,3	35,722
749,8	29,389
750,2	50,389
750,6	8,389
751,1	43,056
751,5	38,722
751,9	20,056
752,4	43,056
752,8	34,389
753,3	46,056
753,7	8,056
754,1	26,389
754,6	23,722
755	-18,611
755,4	34,056
755,9	8,722
756,3	55,389
756,7	5,389
757,2	15,389
757,6	34,056
758	48,389
758,5	40,389
758,9	23,722
759,3	36,056
759,8	10,722
760,2	14,056
760,6	7,056
761,1	22,722
761,5	25,722
761,9	41,722
762,4	23,722
762,8	50,389
763,3	52,722
763,7	10,722
764,1	12,722
764,6	28,389
765	26,722
765,4	45,389
765,9	47,722
766,3	15,722
766,7	51,056
767,2	36,722
767,6	34,056
768	27,722
768,5	29,056
768,9	-1,944
769,3	14,056
769,8	18,389
770,2	50,056
770,6	59,389
771,1	14,056
771,5	15,722
771,9	6,389
772,4	26,389
772,8	7,722
773,2	27,722
773,7	30,056
774,1	14,722
774,5	53,389
775	23,056
775,4	2,056
775,8	39,722
776,3	12,722
776,7	35,722
777,1	51,722
777,6	13,056
778	8,056
778,4	36,389
778,9	18,389
779,3	15,056
779,7	15,056
780,2	34,722
780,6	27,389
781	42,056
781,5	-22,278
781,9	10,056
782,3	23,389
782,8	1,722
783,2	33,722
783,6	3,389
784,1	44,056
784,5	26,722
784,9	-7,944
785,4	46,389
785,8	53,389
786,2	-17,611
786,7	44,056
787,1	29,722
787,5	17,056
788	31,722
788,4	14,389
788,8	12,056
789,3	-13,278
789,7	10,056
790,1	14,722
790,6	-2,611
791	25,389
791,4	29,056
791,9	41,389
792,3	23,056
792,7	31,056
793,2	27,389
793,6	38,056
794	19,389
794,5	14,722
794,9	21,389
795,3	13,722
795,8	13,056
796,2	25,056
796,6	26,056
797,1	25,722
797,5	9,389
797,9	16,722
798,4	37,056
798,8	16,389
799,2	11,056
799,7	35,056
800,1	3,389
800,5	-9,278
801	31,389
801,4	2,056
801,8	9,389
802,2	53,722
802,7	20,722
803,1	-6,944
803,5	34,056
804	35,722
804,4	38,722
804,8	32,722
805,3	29,722
805,7	39,056
806,1	-15,278
806,6	30,389
807	36,722
807,4	18,389
807,9	12,389
808,3	53,056
808,7	13,389
809,2	6,056
809,6	30,722
810	1,389
810,4	19,056
810,9	31,722
811,3	34,722
811,7	21,722
812,2	32,056
812,6	23,389
813	13,722
813,5	4,056
813,9	11,056
814,3	10,056
814,8	21,056
815,2	11,056
815,6	33,389
816,1	-0,944
816,5	30,056
816,9	10,056
817,3	28,722
817,8	20,056
818,2	4,722
818,6	13,056
819,1	11,056
819,5	38,389
819,9	-1,944
820,4	32,389
820,8	15,056
821,2	7,722
821,7	-5,944
822,1	8,722
822,5	29,056
822,9	12,389
823,4	-23,611
823,8	53,722
824,2	-4,278
824,7	48,722
825,1	29,389
825,5	26,722
826	17,056
826,4	6,389
826,8	25,056
827,3	56,722
827,7	24,722
828,1	16,389
828,5	25,389
829	4,389
829,4	-0,611
829,8	31,389
830,3	3,722
830,7	46,056
831,1	38,722
831,6	5,056
832	47,722
832,4	55,056
832,8	28,056
833,3	56,389
833,7	19,722
834,1	36,056
834,6	13,389
835	10,722
835,4	16,056
835,8	13,389
836,3	24,389
836,7	25,389
837,1	9,056
837,6	38,389
838	18,389
838,4	21,056
838,9	-32,278
839,3	13,722
839,7	2,722
840,1	31,389
840,6	0,056
841	33,056
841,4	46,056
841,9	33,389
842,3	21,389
842,7	-2,611
843,1	26,389
843,6	25,056
844	0,056
844,4	26,389
844,9	20,389
845,3	6,389
845,7	7,389
846,2	8,056
846,6	50,722
847	20,056
847,4	46,722
847,9	28,056
848,3	-5,278
848,7	34,056
849,2	18,056
849,6	20,722
850	16,056
850,4	7,056
850,9	20,056
851,3	13,722
851,7	35,722
852,2	1,389
852,6	50,722
853	23,389
853,4	-0,944
853,9	55,722
854,3	5,056
854,7	39,389
855,2	12,722
855,6	24,056
856	9,722
856,4	24,056
856,9	11,056
857,3	12,722
857,7	9,389
858,2	37,722
858,6	14,389
859	8,722
859,4	12,056
859,9	35,722
860,3	-3,278
860,7	19,056
861,1	18,389
861,6	11,389
862	36,389
862,4	22,722
862,9	22,722
863,3	29,722
863,7	8,056
864,1	35,056
864,6	9,056
865	23,389
865,4	-4,278
865,9	17,056
866,3	5,056
866,7	11,722
867,1	4,722
867,6	35,389
868	-8,278
868,4	31,056
868,8	34,722
869,3	10,389
869,7	-15,278
870,1	10,722
870,6	10,722
871	22,056
871,4	24,056
871,8	13,056
872,3	466,389
872,7	23,056
873,1	18,722
873,5	-14,944
874	15,722
874,4	43,389
874,8	50,056
875,3	-29,611
875,7	56,722
876,1	22,056
876,5	24,722
877	19,056
877,4	22,722
877,8	5,722
878,2	44,389
878,7	25,056
879,1	15,722
879,5	15,722
879,9	-14,611
880,4	36,389
880,8	24,056
881,2	45,722
881,7	19,389
882,1	19,056
882,5	13,056
882,9	27,056
883,4	3,389
883,8	30,389
884,2	-23,611
884,6	42,389
885,1	41,389
885,5	23,389
885,9	4,722
886,3	49,722
886,8	38,389
887,2	29,056
887,6	18,389
888	29,722
888,5	2,722
888,9	60,056
889,3	43,722
889,8	30,056
890,2	27,389
890,6	19,056
891	6,722
891,5	38,389
891,9	20,056
892,3	10,056
892,7	15,056
893,2	-8,611
893,6	45,722
894	18,722
894,4	30,056
894,9	-1,611
895,3	53,722
895,7	29,056
896,1	15,389
896,6	38,722
897	22,722
897,4	-20,278
897,8	34,722
898,3	45,056
898,7	10,722
899,1	2,389
899,5	36,389
900	0,389
900,4	27,056
900,8	17,056
901,2	21,722
901,7	9,056
902,1	46,389
902,5	25,056
902,9	14,722
903,4	39,722
903,8	8,722
904,2	17,722
904,6	57,056
905,1	25,056
905,5	34,056
905,9	27,056
906,3	-8,611
906,8	16,389
907,2	11,722
907,6	17,722
908	14,056
908,5	12,722
908,9	42,389
909,3	19,056
909,7	3,389
910,2	28,389
910,6	7,722
911	25,056
911,4	13,389
911,9	49,722
912,3	33,056
912,7	18,722
913,1	19,389
913,6	29,722
914	20,389
914,4	-7,278
914,8	29,056
915,3	47,056
915,7	-4,611
916,1	39,722
916,5	43,056
916,9	57,056
917,4	34,389
917,8	18,722
918,2	47,722
918,6	3,056
919,1	21,722
919,5	14,389
919,9	48,389
920,3	12,722
920,8	6,722
921,2	19,056
921,6	28,056
922	37,056
922,5	23,722
922,9	33,389
923,3	25,722
923,7	25,056
924,2	-0,611
924,6	10,389
925	15,056
925,4	12,389
925,8	36,722
926,3	29,389
926,7	15,389
927,1	52,056
927,5	-1,278
928	21,389
928,4	6,389
928,8	32,056
929,2	13,722
929,7	9,056
930,1	-14,611
930,5	41,056
930,9	-0,944
931,3	24,056
931,8	35,389
932,2	15,389
932,6	27,389
933	49,722
933,5	25,722
933,9	-5,944
934,3	-1,278
934,7	23,389
935,2	20,722
935,6	36,389
936	-1,278
936,4	36,722
936,8	53,722
937,3	29,056
937,7	41,056
938,1	49,722
938,5	33,389
939	4,722
939,4	28,056
939,8	29,056
940,2	13,389
940,6	29,722
941,1	23,389
941,5	29,389
941,9	16,056
942,3	13,389
942,8	11,056
943,2	50,389
943,6	30,722
944	2,056
944,4	15,389
944,9	33,722
945,3	39,056
945,7	4,389
946,1	44,056
946,6	19,056
947	32,722
947,4	10,722
947,8	20,389
948,2	35,389
948,7	-4,944
949,1	46,389
949,5	28,722
949,9	35,722
950,3	16,056
950,8	29,722
951,2	12,722
951,6	48,722
952	-6,944
952,5	6,389
952,9	1,056
953,3	4,056
953,7	-0,278
954,1	46,056
954,6	40,722
955	42,056
955,4	-2,611
955,8	38,722
956,2	32,056
956,7	3,722
957,1	3,056
957,5	45,056
957,9	40,056
958,3	51,056
958,8	33,389
959,2	57,056
959,6	14,722
960	7,722
960,5	40,056
960,9	-6,611
961,3	26,389
961,7	12,056
962,1	24,722
962,6	0,056
963	-2,944
963,4	12,722
963,8	2,389
964,2	3,056
964,7	26,389
965,1	25,389
965,5	16,722
965,9	68,056
966,3	34,722
966,8	25,056
967,2	37,056
967,6	16,389
968	27,722
968,4	25,722
968,9	19,056
969,3	2,056
969,7	43,389
970,1	38,056
970,5	34,722
971	33,389
971,4	23,389
971,8	-2,278
972,2	40,722
972,6	28,722
973,1	27,722
973,5	-6,278
973,9	25,056
974,3	38,056
974,7	47,389
975,2	5,722
975,6	29,056
976	30,056
976,4	29,722
976,8	6,056
977,3	17,389
977,7	39,722
978,1	32,389
978,5	13,722
978,9	12,389
979,4	27,722
979,8	51,722
980,2	17,056
980,6	-2,611
981	40,722
981,5	19,722
981,9	16,389
982,3	10,056
982,7	24,722
983,1	30,056
983,6	25,056
984	38,056
984,4	-12,278
984,8	14,389
985,2	20,056
985,6	-14,278
986,1	29,056
986,5	31,056
986,9	5,722
987,3	30,722
987,7	14,722
988,2	4,056
988,6	-10,944
989	36,389
989,4	27,056
989,8	20,722
990,3	10,056
990,7	3,722
991,1	41,056
991,5	4,722
991,9	12,056
992,3	23,056
992,8	40,389
993,2	68,389
993,6	11,056
994	19,056
994,4	34,389
994,9	16,389
995,3	80,722
995,7	52,056
996,1	6,056
996,5	-2,278
996,9	45,722
997,4	30,056
997,8	14,722
998,2	48,389
998,6	20,389
999	21,056
999,5	43,389
999,9	34,722
1000,3	45,389
1000,7	47,722
1001,1	41,389
1001,5	27,056
1002	-1,944
1002,4	34,722
1002,8	38,722
1003,2	-5,278
1003,6	-15,944
1004	52,722
1004,5	34,389
1004,9	25,056
1005,3	23,056
1005,7	19,389
1006,1	38,056
1006,6	11,056
1007	45,389
1007,4	1,722
1007,8	-10,611
1008,2	-9,278
1008,6	34,722
1009,1	16,389
1009,5	39,056
1009,9	32,722
1010,3	36,389
1010,7	10,056
1011,1	25,722
1011,6	34,722
1012	64,389
1012,4	37,056
1012,8	51,389
1013,2	10,389
1013,6	41,056
1014,1	34,056
1014,5	-4,611
1014,9	27,056
1015,3	4,389
1015,7	23,389
1016,1	13,389
1016,6	11,389
1017	38,389
1017,4	3,056
1017,8	0,056
1018,2	20,722
1018,6	19,722
1019,1	32,056
1019,5	14,722
1019,9	34,056
1020,3	15,056
1020,7	-13,611
1021,1	46,056
1021,6	51,056
1022	15,722
1022,4	24,722
1022,8	23,056
1023,2	43,722
1023,6	13,056
1024,1	13,056
1024,5	-2,278
1024,9	31,389
1025,3	2,056
1025,7	3,389
1026,1	30,722
1026,6	24,722
1027	-6,278
1027,4	23,389
1027,8	24,056
1028,2	34,056
1028,6	40,722
1029	8,389
1029,5	32,056
1029,9	21,056
1030,3	15,722
1030,7	18,056
1031,1	15,722
1031,5	12,056
1032	13,056
1032,4	6,722
1032,8	55,056
1033,2	49,389
1033,6	-4,278
1034	34,722
1034,4	-1,611
1034,9	37,722
1035,3	43,722
1035,7	1,056
1036,1	13,389
1036,5	25,389
1036,9	41,389
1037,4	27,389
1037,8	32,056
1038,2	8,056
1038,6	22,722
1039	39,722
1039,4	-13,278
1039,8	10,056
1040,3	32,389
1040,7	40,722
1041,1	38,722
1041,5	54,389
1041,9	25,056
1042,3	27,389
1042,7	-7,944
1043,2	27,389
1043,6	33,722
1044	-0,278
1044,4	28,389
1044,8	24,389
1045,2	21,389
1045,6	-3,278
1046,1	45,056
1046,5	36,389
1046,9	10,389
1047,3	68,056
1047,7	17,722
1048,1	4,722
1048,5	-15,278
1049	37,056
1049,4	46,722
1049,8	21,722
1050,2	18,389
1050,6	13,722
1051	60,722
1051,4	23,722
1051,9	13,722
1052,3	-21,611
1052,7	38,389
1053,1	13,056
1053,5	18,722
1053,9	48,056
1054,3	23,389
1054,8	50,722
1055,2	56,722
1055,6	11,056
1056	16,056
1056,4	24,056
1056,8	36,722
1057,2	24,056
1057,6	41,389
1058,1	38,389
1058,5	-5,611
1058,9	30,389
1059,3	18,389
1059,7	22,056
1060,1	-11,611
1060,5	42,389
1061	20,389
1061,4	-5,944
1061,8	32,389
1062,2	9,056
1062,6	18,056
1063	42,056
1063,4	25,389
1063,8	23,722
1064,3	33,056
1064,7	21,722
1065,1	3,389
1065,5	35,389
1065,9	51,722
1066,3	8,056
1066,7	77,056
1067,1	31,056
1067,6	65,056
1068	32,389
1068,4	31,389
1068,8	24,389
1069,2	28,389
1069,6	41,722
1070	29,056
1070,4	17,389
1070,9	66,722
1071,3	16,056
1071,7	31,722
1072,1	16,056
1072,5	12,722
1072,9	10,389
1073,3	31,722
1073,7	7,722
1074,2	22,056
1074,6	25,722
1075	36,056
1075,4	28,722
1075,8	44,389
1076,2	20,389
1076,6	40,056
1077	18,722
1077,5	18,722
1077,9	44,722
1078,3	30,056
1078,7	-3,278
1079,1	29,722
1079,5	18,389
1079,9	23,056
1080,3	27,056
1080,7	17,389
1081,2	25,722
1081,6	19,056
1082	7,722
1082,4	10,056
1082,8	20,056
1083,2	10,056
1083,6	-1,944
1084	53,056
1084,5	14,722
1084,9	12,389
1085,3	41,056
1085,7	21,056
1086,1	26,722
1086,5	23,056
1086,9	12,389
1087,3	23,722
1087,7	29,389
1088,2	2,056
1088,6	5,722
1089	42,389
1089,4	-17,611
1089,8	-12,944
1090,2	29,056
1090,6	12,389
1091	16,056
1091,4	46,389
1091,9	13,056
1092,3	38,722
1092,7	9,389
1093,1	1,389
1093,5	18,056
1093,9	26,722
1094,3	13,389
1094,7	5,722
1095,1	30,389
1095,5	21,056
1096	25,056
1096,4	4,056
1096,8	36,056
1097,2	27,056
1097,6	27,056
1098	15,389
1098,4	14,056
1098,8	15,389
1099,2	-1,278
1099,6	24,389
1100,1	19,722
1100,5	7,056
1100,9	43,056
1101,3	6,722
1101,7	-17,611
1102,1	-3,278
1102,5	20,056
1102,9	12,722
1103,3	38,389
1103,7	15,389
1104,2	2,056
1104,6	10,389
1105	15,722
1105,4	-9,611
1105,8	7,722
1106,2	25,722
1106,6	23,389
1107	-0,278
1107,4	-3,278
1107,8	3,056
1108,3	2,389
