Data from Subt2_19-44-49-822.txt Node
Date: Tue Nov 15 19:44:49 MSK 2022
User: vat
Spectrometer: MAYP114033
Trigger mode: 0
Integration Time (sec): 3,500000E-1
Scans to average: 3
Electric dark correction enabled: true
Nonlinearity correction enabled: false
Boxcar width: 0
XAxis mode: Wavelengths
Number of Pixels in Spectrum: 2068
>>>>>Begin Spectral Data<<<<<
199,4	0,611
199,9	4,944
200,4	-2,056
200,8	1,611
201,3	20,611
201,8	22,278
202,2	-5,722
202,7	6,944
203,2	17,944
203,6	24,944
204,1	15,611
204,6	13,278
205	7,278
205,5	25,944
206	23,944
206,4	33,611
206,9	9,944
207,4	21,278
207,8	14,944
208,3	-11,722
208,8	15,611
209,2	1,944
209,7	6,278
210,2	13,278
210,6	21,611
211,1	-2,389
211,5	2,278
212	-13,056
212,5	-9,056
212,9	8,278
213,4	4,278
213,9	26,611
214,3	3,611
214,8	34,278
215,3	-1,056
215,7	-7,056
216,2	2,278
216,7	-9,722
217,1	23,944
217,6	16,611
218,1	37,278
218,5	-7,722
219	-13,056
219,5	46,278
219,9	34,278
220,4	7,944
220,9	15,944
221,3	-1,722
221,8	-3,389
222,3	6,611
222,7	26,278
223,2	-10,389
223,6	8,611
224,1	-9,056
224,6	42,611
225	20,278
225,5	1,278
226	6,944
226,4	6,944
226,9	11,278
227,4	15,278
227,8	19,278
228,3	-7,056
228,8	4,278
229,2	-4,722
229,7	22,278
230,2	-5,389
230,6	2,611
231,1	-12,056
231,5	37,944
232	25,611
232,5	5,944
232,9	21,944
233,4	33,278
233,9	-11,389
234,3	9,611
234,8	36,611
235,3	13,611
235,7	4,611
236,2	-6,389
236,7	39,944
237,1	3,944
237,6	29,611
238,1	28,944
238,5	12,278
239	34,944
239,4	26,278
239,9	5,944
240,4	9,944
240,8	0,278
241,3	39,278
241,8	-4,056
242,2	28,278
242,7	-22,056
243,2	7,944
243,6	23,278
244,1	24,944
244,6	42,611
245	-17,389
245,5	22,944
245,9	-0,389
246,4	-2,722
246,9	-1,722
247,3	21,944
247,8	14,944
248,3	6,944
248,7	4,944
249,2	-13,722
249,7	-13,722
250,1	16,278
250,6	29,944
251	-2,056
251,5	11,944
252	24,278
252,4	20,278
252,9	17,278
253,4	16,944
253,8	4,944
254,3	-10,056
254,8	28,278
255,2	-9,056
255,7	-33,389
256,1	15,944
256,6	3,944
257,1	-3,389
257,5	17,944
258	-38,722
258,5	-0,722
258,9	-7,722
259,4	-8,389
259,9	10,944
260,3	23,278
260,8	31,611
261,2	0,278
261,7	19,278
262,2	-7,722
262,6	4,944
263,1	39,944
263,6	30,278
264	-4,389
264,5	6,278
264,9	-12,056
265,4	-4,056
265,9	23,278
266,3	5,944
266,8	2,611
267,3	10,278
267,7	8,278
268,2	9,611
268,7	10,944
269,1	10,611
269,6	-5,722
270	-16,056
270,5	9,611
271	11,278
271,4	-10,389
271,9	-2,389
272,4	15,611
272,8	1,278
273,3	19,944
273,7	12,944
274,2	21,944
274,7	40,611
275,1	19,278
275,6	44,278
276,1	-1,056
276,5	18,611
277	9,611
277,4	0,278
277,9	24,278
278,4	22,278
278,8	20,611
279,3	-3,056
279,8	-8,389
280,2	-27,722
280,7	3,278
281,1	7,278
281,6	11,278
282,1	-5,722
282,5	15,611
283	7,611
283,4	10,278
283,9	8,944
284,4	6,611
284,8	37,611
285,3	10,944
285,8	5,944
286,2	39,611
286,7	-18,389
287,1	14,944
287,6	25,278
288,1	26,278
288,5	14,278
289	44,611
289,5	3,278
289,9	17,944
290,4	15,278
290,8	22,611
291,3	12,944
291,8	5,944
292,2	-7,722
292,7	28,611
293,1	8,611
293,6	28,611
294,1	17,611
294,5	5,611
295	-6,056
295,5	20,944
295,9	21,611
296,4	32,611
296,8	3,944
297,3	16,278
297,8	36,944
298,2	25,278
298,7	52,944
299,1	21,611
299,6	-0,722
300,1	7,278
300,5	29,611
301	12,944
301,5	9,278
301,9	17,278
302,4	-11,389
302,8	3,611
303,3	-12,722
303,8	31,611
304,2	20,944
304,7	2,611
305,1	0,944
305,6	-0,389
306,1	5,611
306,5	-20,056
307	28,278
307,4	-17,389
307,9	12,278
308,4	16,944
308,8	18,944
309,3	20,278
309,8	-6,722
310,2	51,278
310,7	35,611
311,1	-13,389
311,6	15,278
312,1	-8,389
312,5	7,278
313	17,278
313,4	6,611
313,9	28,278
314,4	28,611
314,8	35,611
315,3	1,278
315,7	11,278
316,2	-10,056
316,7	17,611
317,1	35,944
317,6	-1,056
318	-0,056
318,5	15,611
319	-0,389
319,4	-2,722
319,9	12,278
320,3	-3,056
320,8	20,611
321,3	-12,056
321,7	22,944
322,2	18,278
322,6	3,611
323,1	14,611
323,6	19,278
324	3,611
324,5	6,944
324,9	14,611
325,4	6,278
325,9	9,611
326,3	18,611
326,8	2,611
327,2	53,944
327,7	27,278
328,2	3,944
328,6	53,278
329,1	23,944
329,5	25,611
330	22,611
330,5	16,611
330,9	-2,389
331,4	11,944
331,8	-0,389
332,3	23,611
332,8	16,944
333,2	41,278
333,7	7,944
334,1	-1,722
334,6	9,278
335,1	4,611
335,5	7,944
336	7,611
336,4	19,944
336,9	19,611
337,4	2,611
337,8	-31,722
338,3	11,611
338,7	19,278
339,2	8,944
339,7	-1,722
340,1	15,944
340,6	-8,389
341	4,278
341,5	9,611
342	19,611
342,4	26,611
342,9	27,611
343,3	13,278
343,8	41,278
344,2	-7,389
344,7	48,278
345,2	20,944
345,6	51,944
346,1	12,944
346,5	36,611
347	1,278
347,5	32,611
347,9	37,944
348,4	11,278
348,8	33,944
349,3	20,278
349,8	29,278
350,2	-0,389
350,7	26,611
351,1	2,944
351,6	29,944
352	30,611
352,5	10,944
353	32,944
353,4	11,611
353,9	11,278
354,3	25,611
354,8	47,278
355,3	56,944
355,7	26,611
356,2	51,278
356,6	56,944
357,1	45,278
357,5	64,944
358	66,944
358,5	99,611
358,9	86,278
359,4	110,278
359,8	142,611
360,3	123,944
360,8	185,944
361,2	181,611
361,7	179,611
362,1	235,611
362,6	256,611
363	296,944
363,5	354,944
364	350,278
364,4	390,944
364,9	426,944
365,3	444,611
365,8	491,611
366,3	532,944
366,7	540,278
367,2	561,611
367,6	610,611
368,1	591,611
368,5	579,944
369	595,944
369,5	614,611
369,9	587,278
370,4	576,278
370,8	533,611
371,3	573,944
371,7	556,944
372,2	506,611
372,7	486,611
373,1	455,944
373,6	427,278
374	413,278
374,5	391,278
374,9	332,611
375,4	315,611
375,9	293,278
376,3	253,278
376,8	281,944
377,2	233,278
377,7	248,944
378,2	211,278
378,6	186,944
379,1	193,278
379,5	135,278
380	156,944
380,4	169,278
380,9	128,278
381,4	145,944
381,8	116,278
382,3	126,278
382,7	134,944
383,2	119,278
383,6	100,611
384,1	113,278
384,6	107,278
385	89,278
385,5	119,944
385,9	103,278
386,4	125,944
386,8	88,611
387,3	111,278
387,7	121,611
388,2	114,611
388,7	139,278
389,1	124,278
389,6	137,611
390	154,944
390,5	146,611
390,9	157,611
391,4	157,611
391,9	160,278
392,3	136,611
392,8	166,944
393,2	199,611
393,7	141,944
394,1	193,944
394,6	223,278
395,1	202,611
395,5	199,278
396	224,944
396,4	208,944
396,9	247,278
397,3	253,944
397,8	239,944
398,2	247,944
398,7	296,944
399,2	292,944
399,6	342,944
400,1	294,944
400,5	332,944
401	369,944
401,4	347,278
401,9	369,611
402,4	386,611
402,8	398,944
403,3	370,944
403,7	394,944
404,2	409,944
404,6	450,611
405,1	466,611
405,5	483,611
406	484,278
406,5	522,944
406,9	529,278
407,4	591,278
407,8	565,278
408,3	579,944
408,7	634,611
409,2	617,611
409,6	627,611
410,1	675,278
410,6	689,944
411	670,278
411,5	699,278
411,9	704,278
412,4	772,944
412,8	766,944
413,3	759,278
413,7	819,278
414,2	821,611
414,7	843,278
415,1	893,944
415,6	866,611
416	902,278
416,5	929,611
416,9	928,278
417,4	965,278
417,8	982,278
418,3	997,278
418,8	1027,611
419,2	1038,944
419,7	1055,278
420,1	1090,611
420,6	1102,278
421	1112,278
421,5	1083,944
421,9	1165,278
422,4	1172,278
422,8	1174,944
423,3	1200,278
423,8	1204,278
424,2	1191,944
424,7	1216,944
425,1	1261,278
425,6	1258,278
426	1269,944
426,5	1298,278
426,9	1327,278
427,4	1330,944
427,9	1345,944
428,3	1344,611
428,8	1347,944
429,2	1391,944
429,7	1426,611
430,1	1387,944
430,6	1453,944
431	1446,611
431,5	1480,944
431,9	1490,278
432,4	1476,944
432,8	1502,944
433,3	1498,278
433,8	1535,944
434,2	1537,611
434,7	1517,611
435,1	1533,611
435,6	1569,944
436	1558,611
436,5	1568,611
436,9	1599,944
437,4	1623,611
437,8	1631,611
438,3	1594,278
438,8	1649,611
439,2	1626,278
439,7	1635,611
440,1	1674,944
440,6	1683,944
441	1659,944
441,5	1708,611
441,9	1669,278
442,4	1714,611
442,8	1709,944
443,3	1729,944
443,7	1712,278
444,2	1747,944
444,7	1753,278
445,1	1740,944
445,6	1758,278
446	1739,944
446,5	1764,278
446,9	1752,944
447,4	1757,944
447,8	1784,278
448,3	1775,611
448,7	1773,611
449,2	1738,944
449,6	1793,278
450,1	1745,611
450,6	1737,278
451	1785,611
451,5	1813,611
451,9	1766,944
452,4	1792,944
452,8	1717,611
453,3	1808,944
453,7	1782,944
454,2	1828,278
454,6	1782,278
455,1	1792,944
455,5	1782,278
456	1750,611
456,4	1785,944
456,9	1799,944
457,3	1758,611
457,8	1745,278
458,3	1776,611
458,7	1791,611
459,2	1801,611
459,6	1795,278
460,1	1798,278
460,5	1770,944
461	1731,278
461,4	1739,944
461,9	1793,944
462,3	1743,611
462,8	1760,278
463,2	1756,944
463,7	1789,611
464,1	1733,944
464,6	1788,278
465	1740,944
465,5	1737,944
466	1736,278
466,4	1738,944
466,9	1765,611
467,3	1729,611
467,8	1711,278
468,2	1700,278
468,7	1674,944
469,1	1735,944
469,6	1708,944
470	1692,611
470,5	1703,611
470,9	1700,611
471,4	1694,611
471,8	1675,611
472,3	1690,944
472,7	1658,278
473,2	1652,944
473,6	1661,611
474,1	1705,278
474,5	1671,611
475	1660,944
475,4	1598,278
475,9	1595,944
476,4	1620,278
476,8	1615,944
477,3	1658,278
477,7	1632,944
478,2	1649,278
478,6	1641,944
479,1	1603,278
479,5	1595,944
480	1631,944
480,4	1599,944
480,9	1639,278
481,3	1581,278
481,8	1590,611
482,2	1617,944
482,7	1589,278
483,1	1547,278
483,6	1564,944
484	1558,278
484,5	1521,278
484,9	1591,944
485,4	1572,611
485,8	1601,278
486,3	1544,944
486,7	1524,944
487,2	1557,944
487,6	1539,944
488,1	1526,611
488,5	1523,944
489	1551,944
489,4	1511,278
489,9	1536,944
490,4	1561,611
490,8	1536,278
491,3	1517,278
491,7	1509,944
492,2	1501,278
492,6	1529,944
493,1	1504,278
493,5	1499,944
494	1481,278
494,4	1502,278
494,9	1462,611
495,3	1498,944
495,8	1524,611
496,2	1509,611
496,7	1464,278
497,1	1467,611
497,6	1474,611
498	1479,944
498,5	1438,278
498,9	1483,611
499,4	1487,944
499,8	1456,611
500,3	1462,944
500,7	1485,611
501,2	1444,944
501,6	1496,611
502,1	1416,944
502,5	1464,944
503	1471,611
503,4	1470,278
503,9	1427,944
504,3	1467,278
504,8	1422,944
505,2	1451,278
505,7	1448,611
506,1	1429,278
506,6	1433,611
507	1419,611
507,5	1419,278
507,9	1437,611
508,4	1441,611
508,8	1438,278
509,3	1428,278
509,7	1473,944
510,2	1424,944
510,6	1419,944
511,1	1421,278
511,5	1410,944
512	1458,944
512,4	1429,278
512,9	1424,611
513,3	1401,944
513,8	1419,944
514,2	1420,278
514,7	1408,611
515,1	1398,278
515,6	1418,278
516	1423,611
516,5	1424,278
516,9	1398,278
517,4	1433,944
517,8	1396,944
518,3	1355,278
518,7	1406,278
519,2	1406,611
519,6	1363,278
520,1	1382,944
520,5	1393,944
521	1349,944
521,4	1365,944
521,9	1362,278
522,3	1376,944
522,8	1381,944
523,2	1340,278
523,7	1338,611
524,1	1359,611
524,6	1346,278
525	1330,278
525,5	1338,278
525,9	1358,944
526,4	1314,611
526,8	1376,278
527,3	1338,278
527,7	1360,944
528,2	1359,944
528,6	1279,944
529,1	1338,611
529,5	1351,944
530	1300,611
530,4	1288,611
530,9	1297,611
531,3	1287,944
531,8	1301,944
532,2	1349,278
532,6	1292,944
533,1	1280,278
533,5	1288,278
534	1305,278
534,4	1281,944
534,9	1304,611
535,3	1283,944
535,8	1274,944
536,2	1280,611
536,7	1283,944
537,1	1284,611
537,6	1276,278
538	1260,611
538,5	1234,611
538,9	1251,611
539,4	1275,944
539,8	1242,611
540,3	1250,278
540,7	1251,944
541,2	1237,944
541,6	1217,278
542,1	1236,944
542,5	1208,944
543	1206,611
543,4	1214,611
543,9	1183,611
544,3	1197,944
544,8	1181,278
545,2	1185,611
545,7	1199,611
546,1	1207,611
546,5	1197,944
547	1177,278
547,4	1134,278
547,9	1108,611
548,3	1161,278
548,8	1118,278
549,2	1132,944
549,7	1128,278
550,1	1150,611
550,6	1129,278
551	1121,278
551,5	1107,944
551,9	1104,278
552,4	1162,611
552,8	1146,611
553,3	1101,278
553,7	1088,944
554,2	1092,944
554,6	1128,944
555,1	1091,611
555,5	1085,611
555,9	1099,944
556,4	1065,944
556,8	1069,944
557,3	1069,944
557,7	1057,611
558,2	1064,278
558,6	1058,611
559,1	1040,944
559,5	1074,611
560	1033,944
560,4	1021,611
560,9	1024,611
561,3	1013,278
561,8	1011,611
562,2	991,944
562,7	1015,611
563,1	1022,944
563,6	980,278
564	1011,611
564,4	979,944
564,9	982,611
565,3	982,611
565,8	980,278
566,2	958,611
566,7	989,611
567,1	970,278
567,6	913,278
568	926,944
568,5	920,611
568,9	917,944
569,4	931,278
569,8	945,944
570,3	926,611
570,7	885,611
571,1	921,611
571,6	879,278
572	878,278
572,5	912,278
572,9	862,611
573,4	874,278
573,8	856,278
574,3	884,944
574,7	846,944
575,2	864,278
575,6	843,944
576,1	840,611
576,5	850,278
576,9	849,611
577,4	842,611
577,8	818,278
578,3	810,944
578,7	779,611
579,2	791,944
579,6	826,611
580,1	786,611
580,5	758,944
581	801,611
581,4	732,278
581,9	750,278
582,3	769,944
582,7	753,611
583,2	750,944
583,6	765,278
584,1	737,611
584,5	702,278
585	737,611
585,4	724,944
585,9	724,611
586,3	699,944
586,8	729,944
587,2	711,944
587,6	720,944
588,1	662,611
588,5	691,611
589	700,611
589,4	655,278
589,9	685,278
590,3	715,278
590,8	663,944
591,2	638,944
591,7	664,944
592,1	692,278
592,5	659,278
593	635,944
593,4	653,944
593,9	630,611
594,3	652,944
594,8	619,278
595,2	619,944
595,7	615,278
596,1	610,944
596,6	615,278
597	591,278
597,4	576,944
597,9	594,944
598,3	610,278
598,8	558,611
599,2	596,278
599,7	586,611
600,1	579,611
600,6	547,278
601	601,944
601,4	577,944
601,9	536,611
602,3	562,944
602,8	532,278
603,2	552,278
603,7	565,944
604,1	555,944
604,6	527,944
605	520,278
605,4	504,278
605,9	536,278
606,3	524,611
606,8	512,611
607,2	499,944
607,7	512,278
608,1	513,944
608,6	493,944
609	497,611
609,4	504,278
609,9	476,278
610,3	483,611
610,8	460,611
611,2	462,278
611,7	519,944
612,1	444,611
612,6	438,278
613	473,611
613,4	473,611
613,9	427,278
614,3	445,278
614,8	437,944
615,2	430,944
615,7	430,944
616,1	431,278
616,6	419,611
617	443,611
617,4	413,944
617,9	390,611
618,3	421,944
618,8	403,611
619,2	422,278
619,7	427,944
620,1	407,611
620,5	401,944
621	367,278
621,4	398,944
621,9	349,944
622,3	384,944
622,8	386,944
623,2	369,278
623,6	400,944
624,1	367,278
624,5	356,278
625	386,611
625,4	347,278
625,9	357,278
626,3	365,278
626,8	350,611
627,2	363,278
627,6	336,944
628,1	336,611
628,5	315,944
629	321,611
629,4	331,611
629,9	351,944
630,3	328,278
630,7	317,944
631,2	311,278
631,6	332,944
632,1	320,611
632,5	277,944
633	281,611
633,4	300,278
633,8	325,944
634,3	299,611
634,7	258,278
635,2	290,611
635,6	315,944
636,1	277,278
636,5	258,611
636,9	270,278
637,4	272,611
637,8	295,278
638,3	290,278
638,7	276,611
639,2	288,278
639,6	240,278
640	263,278
640,5	274,944
640,9	265,611
641,4	258,278
641,8	246,611
642,2	254,278
642,7	259,611
643,1	243,944
643,6	234,944
644	251,278
644,5	245,278
644,9	241,278
645,3	234,611
645,8	238,611
646,2	235,611
646,7	232,611
647,1	219,278
647,6	217,611
648	200,278
648,4	210,611
648,9	227,611
649,3	230,611
649,8	207,278
650,2	226,278
650,6	240,611
651,1	176,944
651,5	203,944
652	239,611
652,4	192,944
652,9	214,611
653,3	220,278
653,7	204,944
654,2	174,944
654,6	206,944
655,1	212,278
655,5	186,611
655,9	208,278
656,4	216,611
656,8	172,611
657,3	198,278
657,7	183,278
658,2	216,611
658,6	169,278
659	182,611
659,5	177,944
659,9	176,944
660,4	151,944
660,8	150,611
661,2	191,278
661,7	158,611
662,1	190,278
662,6	170,278
663	180,611
663,4	179,278
663,9	145,278
664,3	186,278
664,8	156,611
665,2	173,611
665,6	140,278
666,1	137,611
666,5	140,944
667	169,611
667,4	198,611
667,9	172,278
668,3	169,278
668,7	132,944
669,2	123,278
669,6	122,611
670,1	166,278
670,5	140,278
670,9	152,278
671,4	128,944
671,8	128,278
672,3	155,611
672,7	129,278
673,1	134,611
673,6	139,944
674	164,944
674,5	141,611
674,9	118,944
675,3	118,944
675,8	113,278
676,2	146,944
676,7	131,278
677,1	163,944
677,5	105,944
678	145,278
678,4	136,611
678,9	100,944
679,3	116,944
679,7	118,944
680,2	113,944
680,6	77,611
681,1	91,611
681,5	109,611
681,9	83,944
682,4	105,611
682,8	119,944
683,3	97,611
683,7	95,944
684,1	118,944
684,6	102,611
685	96,944
685,5	103,944
685,9	108,278
686,3	101,944
686,8	88,278
687,2	100,944
687,7	102,944
688,1	79,278
688,5	70,611
689	91,944
689,4	66,278
689,9	96,611
690,3	77,611
690,7	117,611
691,2	101,944
691,6	124,611
692	80,278
692,5	85,278
692,9	72,944
693,4	105,944
693,8	91,278
694,2	99,278
694,7	65,611
695,1	79,611
695,6	83,944
696	100,278
696,4	62,278
696,9	93,278
697,3	85,611
697,8	57,944
698,2	60,611
698,6	82,278
699,1	67,278
699,5	86,944
699,9	93,278
700,4	62,278
700,8	87,278
701,3	104,944
701,7	32,944
702,1	87,278
702,6	101,278
703	44,944
703,5	70,944
703,9	62,944
704,3	86,611
704,8	67,278
705,2	80,278
705,6	83,611
706,1	78,944
706,5	62,944
707	88,278
707,4	82,278
707,8	52,944
708,3	49,611
708,7	51,278
709,2	65,611
709,6	35,278
710	46,278
710,5	40,278
710,9	53,944
711,3	49,278
711,8	51,944
712,2	75,611
712,7	38,944
713,1	65,611
713,5	39,611
714	51,944
714,4	55,611
714,8	59,611
715,3	76,944
715,7	66,611
716,2	27,611
716,6	36,611
717	68,944
717,5	72,278
717,9	54,611
718,3	78,278
718,8	52,278
719,2	53,278
719,7	71,944
720,1	49,611
720,5	54,944
721	36,611
721,4	54,944
721,8	31,944
722,3	63,278
722,7	38,611
723,2	52,278
723,6	69,944
724	71,611
724,5	57,278
724,9	42,278
725,3	45,944
725,8	73,278
726,2	54,611
726,7	50,944
727,1	63,944
727,5	24,278
728	22,278
728,4	59,611
728,8	45,611
729,3	24,944
729,7	48,944
730,1	37,611
730,6	66,278
731	49,611
731,5	52,611
731,9	45,611
732,3	30,278
732,8	60,611
733,2	42,278
733,6	20,944
734,1	21,611
734,5	41,278
734,9	39,278
735,4	-1,722
735,8	33,611
736,3	44,611
736,7	40,278
737,1	42,278
737,6	23,611
738	50,611
738,4	20,944
738,9	32,278
739,3	19,278
739,7	20,611
740,2	18,944
740,6	38,278
741,1	39,278
741,5	55,944
741,9	30,611
742,4	46,611
742,8	34,944
743,2	44,944
743,7	22,278
744,1	37,611
744,5	29,611
745	20,278
745,4	43,278
745,8	17,611
746,3	36,278
746,7	34,278
747,2	-5,722
747,6	27,944
748	6,944
748,5	38,278
748,9	25,944
749,3	17,611
749,8	19,278
750,2	25,278
750,6	0,944
751,1	-2,389
751,5	31,944
751,9	50,944
752,4	16,944
752,8	32,944
753,3	45,278
753,7	26,944
754,1	38,944
754,6	35,278
755	11,944
755,4	46,611
755,9	50,278
756,3	24,611
756,7	10,611
757,2	34,278
757,6	9,611
758	44,278
758,5	0,611
758,9	17,278
759,3	26,944
759,8	26,611
760,2	-4,389
760,6	6,278
761,1	43,944
761,5	12,278
761,9	59,944
762,4	22,278
762,8	23,611
763,3	42,278
763,7	20,944
764,1	18,278
764,6	21,944
765	24,278
765,4	11,278
765,9	21,944
766,3	26,278
766,7	-0,722
767,2	13,278
767,6	57,611
768	8,611
768,5	31,944
768,9	21,944
769,3	12,611
769,8	15,611
770,2	27,944
770,6	36,944
771,1	50,611
771,5	4,278
771,9	5,611
772,4	17,611
772,8	-2,722
773,2	11,944
773,7	27,611
774,1	93,611
774,5	13,278
775	51,278
775,4	24,611
775,8	30,611
776,3	40,944
776,7	48,278
777,1	36,944
777,6	3,944
778	3,278
778,4	25,944
778,9	14,278
779,3	23,944
779,7	-2,056
780,2	34,611
780,6	45,611
781	15,278
781,5	6,278
781,9	24,278
782,3	19,278
782,8	41,944
783,2	14,611
783,6	11,278
784,1	19,611
784,5	58,278
784,9	18,278
785,4	-2,056
785,8	3,944
786,2	12,278
786,7	23,611
787,1	19,278
787,5	-5,389
788	8,278
788,4	35,944
788,8	-4,056
789,3	21,944
789,7	44,278
790,1	43,278
790,6	16,278
791	23,611
791,4	50,278
791,9	34,611
792,3	19,944
792,7	27,611
793,2	-1,722
793,6	-13,056
794	17,278
794,5	2,611
794,9	33,944
795,3	7,611
795,8	-4,389
796,2	-12,389
796,6	33,611
797,1	7,944
797,5	25,944
797,9	29,611
798,4	32,278
798,8	24,611
799,2	32,278
799,7	14,944
800,1	7,611
800,5	-0,389
801	15,611
801,4	11,278
801,8	27,278
802,2	18,944
802,7	43,278
803,1	-3,389
803,5	25,611
804	38,278
804,4	34,944
804,8	31,278
805,3	13,944
805,7	-15,056
806,1	3,944
806,6	17,611
807	24,944
807,4	26,278
807,9	23,278
808,3	-8,056
808,7	10,944
809,2	12,278
809,6	30,944
810	32,278
810,4	13,278
810,9	32,611
811,3	20,611
811,7	14,944
812,2	19,611
812,6	12,611
813	29,278
813,5	17,611
813,9	6,278
814,3	27,944
814,8	22,278
815,2	7,278
815,6	-0,056
816,1	8,944
816,5	39,944
816,9	28,611
817,3	10,611
817,8	32,278
818,2	-10,389
818,6	14,611
819,1	21,944
819,5	4,278
819,9	29,944
820,4	18,278
820,8	3,278
821,2	15,611
821,7	24,278
822,1	25,611
822,5	-9,389
822,9	1,944
823,4	28,611
823,8	-2,056
824,2	-26,056
824,7	-2,056
825,1	-28,722
825,5	22,278
826	11,278
826,4	0,944
826,8	4,278
827,3	2,944
827,7	18,278
828,1	29,611
828,5	32,278
829	20,611
829,4	16,278
829,8	-1,389
830,3	23,611
830,7	-1,056
831,1	-2,389
831,6	12,278
832	36,611
832,4	15,278
832,8	14,611
833,3	14,611
833,7	30,611
834,1	12,944
834,6	27,944
835	3,611
835,4	5,278
835,8	25,611
836,3	-22,722
836,7	13,611
837,1	12,611
837,6	36,944
838	45,611
838,4	-6,722
838,9	-7,722
839,3	27,278
839,7	-10,722
840,1	22,278
840,6	4,278
841	7,944
841,4	48,278
841,9	0,611
842,3	25,278
842,7	45,278
843,1	-9,056
843,6	-11,389
844	-10,389
844,4	5,944
844,9	9,944
845,3	39,278
845,7	17,278
846,2	18,944
846,6	-18,056
847	28,944
847,4	5,278
847,9	27,611
848,3	6,944
848,7	35,944
849,2	24,944
849,6	19,944
850	5,278
850,4	-43,389
850,9	12,944
851,3	33,611
851,7	-4,389
852,2	4,944
852,6	6,278
853	15,944
853,4	25,944
853,9	20,611
854,3	2,278
854,7	13,944
855,2	9,611
855,6	17,611
856	4,611
856,4	1,944
856,9	-15,389
857,3	28,278
857,7	0,278
858,2	16,278
858,6	6,611
859	-9,389
859,4	42,278
859,9	-0,056
860,3	-0,722
860,7	-4,389
861,1	23,611
861,6	14,611
862	3,278
862,4	18,611
862,9	4,944
863,3	22,278
863,7	9,278
864,1	1,944
864,6	-0,056
865	48,278
865,4	8,611
865,9	17,278
866,3	3,944
866,7	-6,056
867,1	-2,389
867,6	-1,056
868	15,278
868,4	4,278
868,8	15,944
869,3	17,278
869,7	9,278
870,1	21,278
870,6	-7,722
871	17,944
871,4	11,611
871,8	0,944
872,3	133,944
872,7	5,278
873,1	26,278
873,5	-13,722
874	11,611
874,4	-26,722
874,8	1,278
875,3	8,944
875,7	37,278
876,1	31,611
876,5	31,278
877	21,278
877,4	0,944
877,8	34,611
878,2	-0,722
878,7	-1,389
879,1	-4,389
879,5	24,944
879,9	34,611
880,4	-0,056
880,8	19,278
881,2	4,611
881,7	17,944
882,1	16,611
882,5	10,944
882,9	10,278
883,4	24,944
883,8	-6,722
884,2	-2,056
884,6	-1,056
885,1	28,611
885,5	32,944
885,9	11,611
886,3	22,278
886,8	11,611
887,2	3,611
887,6	9,278
888	-3,722
888,5	33,611
888,9	12,278
889,3	1,944
889,8	14,944
890,2	6,611
890,6	-0,389
891	-3,389
891,5	2,611
891,9	-1,056
892,3	3,278
892,7	20,944
893,2	5,944
893,6	11,611
894	9,944
894,4	10,944
894,9	15,944
895,3	-5,722
895,7	8,278
896,1	6,944
896,6	7,611
897	7,278
897,4	26,278
897,8	12,944
898,3	-8,056
898,7	11,278
899,1	-4,056
899,5	18,944
900	-7,722
900,4	0,278
900,8	-4,389
901,2	18,944
901,7	-3,722
902,1	14,611
902,5	26,944
902,9	12,611
903,4	29,944
903,8	37,278
904,2	36,278
904,6	-5,722
905,1	11,611
905,5	22,278
905,9	16,278
906,3	14,611
906,8	48,611
907,2	1,611
907,6	4,278
908	23,944
908,5	-9,389
908,9	22,944
909,3	-5,389
909,7	-6,389
910,2	22,278
910,6	12,944
911	-10,722
911,4	4,944
911,9	26,278
912,3	16,611
912,7	27,611
913,1	-15,389
913,6	32,611
914	22,944
914,4	26,278
914,8	-5,056
915,3	-6,722
915,7	0,944
916,1	24,944
916,5	25,944
916,9	-12,056
917,4	7,611
917,8	18,944
918,2	3,944
918,6	10,944
919,1	5,611
919,5	61,278
919,9	5,278
920,3	25,611
920,8	-18,389
921,2	9,278
921,6	31,278
922	26,278
922,5	-5,056
922,9	10,278
923,3	15,944
923,7	-2,722
924,2	3,278
924,6	-21,722
925	22,944
925,4	6,944
925,8	24,278
926,3	17,944
926,7	4,611
927,1	11,278
927,5	-6,389
928	-11,389
928,4	37,944
928,8	-5,722
929,2	17,278
929,7	13,278
930,1	29,611
930,5	3,278
930,9	10,611
931,3	-12,056
931,8	13,611
932,2	5,278
932,6	-12,722
933	28,944
933,5	27,611
933,9	11,278
934,3	10,278
934,7	-18,056
935,2	12,611
935,6	3,278
936	18,944
936,4	1,611
936,8	15,278
937,3	4,944
937,7	-10,722
938,1	19,611
938,5	18,611
939	15,944
939,4	34,278
939,8	26,278
940,2	7,944
940,6	12,611
941,1	30,611
941,5	37,278
941,9	7,944
942,3	2,611
942,8	31,944
943,2	11,944
943,6	26,944
944	-24,722
944,4	12,278
944,9	19,278
945,3	17,611
945,7	15,611
946,1	-27,722
946,6	2,611
947	26,611
947,4	17,944
947,8	14,278
948,2	15,611
948,7	20,278
949,1	16,611
949,5	10,611
949,9	26,944
950,3	42,278
950,8	7,278
951,2	-3,389
951,6	-6,722
952	10,944
952,5	17,278
952,9	29,611
953,3	11,278
953,7	18,944
954,1	10,278
954,6	14,278
955	28,278
955,4	8,944
955,8	27,611
956,2	-1,389
956,7	32,611
957,1	-12,056
957,5	6,944
957,9	16,278
958,3	21,611
958,8	-3,389
959,2	19,611
959,6	-13,056
960	22,944
960,5	44,944
960,9	0,944
961,3	-5,389
961,7	31,944
962,1	29,944
962,6	7,278
963	-8,722
963,4	19,611
963,8	43,278
964,2	1,944
964,7	-9,389
965,1	33,278
965,5	5,611
965,9	27,611
966,3	-5,722
966,8	-11,722
967,2	-4,389
967,6	4,611
968	8,278
968,4	30,611
968,9	18,611
969,3	18,611
969,7	18,944
970,1	8,944
970,5	4,944
971	13,944
971,4	33,611
971,8	-34,389
972,2	13,278
972,6	31,944
973,1	32,944
973,5	4,278
973,9	27,611
974,3	11,611
974,7	18,944
975,2	21,944
975,6	21,278
976	16,944
976,4	-15,056
976,8	19,278
977,3	17,611
977,7	28,278
978,1	10,611
978,5	19,278
978,9	13,944
979,4	39,944
979,8	23,944
980,2	17,278
980,6	18,611
981	9,611
981,5	10,611
981,9	15,611
982,3	3,944
982,7	-12,056
983,1	34,278
983,6	20,278
984	20,611
984,4	18,611
984,8	-0,056
985,2	9,944
985,6	-6,056
986,1	10,944
986,5	32,611
986,9	30,278
987,3	17,611
987,7	-14,056
988,2	13,611
988,6	-19,722
989	4,611
989,4	17,278
989,8	24,278
990,3	6,278
990,7	6,944
991,1	2,611
991,5	12,611
991,9	23,611
992,3	-7,389
992,8	36,278
993,2	-1,056
993,6	18,278
994	-14,722
994,4	22,611
994,9	13,611
995,3	2,944
995,7	3,278
996,1	18,944
996,5	-1,056
996,9	-6,722
997,4	-7,722
997,8	-5,056
998,2	11,278
998,6	-26,389
999	-16,056
999,5	1,944
999,9	4,944
1000,3	4,611
1000,7	25,944
1001,1	35,944
1001,5	22,944
1002	-20,056
1002,4	24,944
1002,8	-4,722
1003,2	17,278
1003,6	47,611
1004	17,611
1004,5	-23,389
1004,9	21,944
1005,3	26,278
1005,7	31,611
1006,1	12,278
1006,6	19,278
1007	-4,722
1007,4	20,944
1007,8	10,944
1008,2	26,278
1008,6	20,944
1009,1	-8,722
1009,5	22,611
1009,9	-1,389
1010,3	16,611
1010,7	30,611
1011,1	35,944
1011,6	55,944
1012	27,611
1012,4	-0,389
1012,8	16,278
1013,2	25,278
1013,6	23,278
1014,1	1,278
1014,5	-14,722
1014,9	7,278
1015,3	33,944
1015,7	23,278
1016,1	4,611
1016,6	42,944
1017	2,278
1017,4	43,611
1017,8	7,611
1018,2	34,278
1018,6	-11,389
1019,1	10,611
1019,5	-15,722
1019,9	22,944
1020,3	31,278
1020,7	34,944
1021,1	13,278
1021,6	-11,056
1022	0,278
1022,4	28,944
1022,8	0,611
1023,2	11,611
1023,6	-19,722
1024,1	6,944
1024,5	-24,722
1024,9	-7,056
1025,3	11,944
1025,7	-9,056
1026,1	16,944
1026,6	29,944
1027	13,944
1027,4	34,611
1027,8	-0,056
1028,2	-0,722
1028,6	-14,056
1029	22,944
1029,5	-3,722
1029,9	11,944
1030,3	2,611
1030,7	2,944
1031,1	20,611
1031,5	5,611
1032	-0,722
1032,4	1,611
1032,8	32,278
1033,2	3,944
1033,6	0,944
1034	-6,722
1034,4	20,944
1034,9	23,944
1035,3	16,944
1035,7	5,611
1036,1	-0,056
1036,5	38,944
1036,9	-4,722
1037,4	60,611
1037,8	4,944
1038,2	16,944
1038,6	14,944
1039	20,944
1039,4	9,278
1039,8	32,944
1040,3	31,278
1040,7	21,278
1041,1	-5,389
1041,5	9,944
1041,9	-9,056
1042,3	14,278
1042,7	25,611
1043,2	48,611
1043,6	19,944
1044	-4,722
1044,4	2,611
1044,8	5,278
1045,2	10,278
1045,6	22,278
1046,1	15,278
1046,5	14,278
1046,9	13,944
1047,3	-11,056
1047,7	8,611
1048,1	29,278
1048,5	26,278
1049	32,278
1049,4	-7,389
1049,8	0,278
1050,2	-3,722
1050,6	-9,056
1051	1,611
1051,4	7,278
1051,9	0,611
1052,3	13,944
1052,7	2,944
1053,1	1,611
1053,5	-6,389
1053,9	37,944
1054,3	21,611
1054,8	14,278
1055,2	14,278
1055,6	29,278
1056	2,611
1056,4	32,278
1056,8	20,944
1057,2	27,611
1057,6	48,611
1058,1	27,611
1058,5	30,944
1058,9	-5,389
1059,3	25,944
1059,7	1,944
1060,1	-2,056
1060,5	-7,722
1061	14,944
1061,4	-0,056
1061,8	28,944
1062,2	10,611
1062,6	32,944
1063	10,611
1063,4	9,611
1063,8	-4,056
1064,3	4,611
1064,7	11,278
1065,1	22,944
1065,5	36,944
1065,9	4,611
1066,3	19,278
1066,7	41,278
1067,1	3,944
1067,6	28,944
1068	-7,389
1068,4	24,611
1068,8	0,278
1069,2	40,944
1069,6	25,278
1070	-3,389
1070,4	-8,056
1070,9	5,944
1071,3	20,944
1071,7	7,278
1072,1	31,278
1072,5	24,278
1072,9	0,278
1073,3	5,611
1073,7	19,278
1074,2	27,611
1074,6	14,278
1075	15,611
1075,4	-8,722
1075,8	20,278
1076,2	14,611
1076,6	-0,056
1077	35,944
1077,5	13,611
1077,9	40,944
1078,3	48,278
1078,7	2,944
1079,1	32,278
1079,5	-20,722
1079,9	32,611
1080,3	-25,389
1080,7	42,944
1081,2	-3,389
1081,6	21,944
1082	7,944
1082,4	-6,389
1082,8	17,944
1083,2	-1,722
1083,6	-9,389
1084	31,944
1084,5	1,944
1084,9	23,611
1085,3	24,278
1085,7	-6,389
1086,1	12,944
1086,5	3,278
1086,9	16,611
1087,3	6,278
1087,7	44,611
1088,2	30,278
1088,6	31,944
1089	9,278
1089,4	0,278
1089,8	-15,389
1090,2	-5,056
1090,6	-11,722
1091	21,278
1091,4	-6,722
1091,9	-7,389
1092,3	26,944
1092,7	-13,056
1093,1	4,611
1093,5	18,611
1093,9	44,611
1094,3	18,278
1094,7	31,944
1095,1	-8,056
1095,5	8,278
1096	-30,722
1096,4	1,278
1096,8	20,611
1097,2	0,278
1097,6	-5,056
1098	6,944
1098,4	4,278
1098,8	10,611
1099,2	-1,722
1099,6	27,278
1100,1	21,611
1100,5	-8,389
1100,9	20,944
1101,3	-16,389
1101,7	-16,389
1102,1	16,278
1102,5	19,278
1102,9	7,611
1103,3	9,278
1103,7	24,278
1104,2	10,944
1104,6	-0,056
1105	7,611
1105,4	13,944
1105,8	13,944
1106,2	17,611
1106,6	-1,722
1107	0,944
1107,4	0,611
1107,8	-4,056
1108,3	2,944
